Number of frames: 286
Frequency: 100
Units: rad/mm

Frame,Pen1_tip Rz,Pen1_tip Ry,Pen1_tip Rx,Pen1_tip x,Pen1_tip y,Pen1_tip z,Pen1_tip Error,Pen2_tip2 Rz,Pen2_tip2 Ry,Pen2_tip2 Rx,Pen2_tip2 x,Pen2_tip2 y,Pen2_tip2 z,Pen2_tip2 Error
1, 0.041354459,-0.032028306,-0.050749980,-307.333923340,-188.825653076,-2476.748779297, 0.013706777,,,,,,,,
2, 0.037529673,-0.031870820,-0.053411078,-307.376220703,-188.825973511,-2476.720214844, 0.012106066,,,,,,,,
3, 0.033862907,-0.032158677,-0.055753335,-307.418670654,-188.825347900,-2476.759521484, 0.011544077,,,,,,,,
4, 0.030639125,-0.033290252,-0.057997596,-307.436859131,-188.823532104,-2476.798339844, 0.012239214,,,,,,,,
5, 0.027872793,-0.034920741,-0.060261678,-307.436584473,-188.822982788,-2476.798339844, 0.013768733,,,,,,,,
6, 0.025360383,-0.036633875,-0.062053993,-307.429016113,-188.821456909,-2476.846191406, 0.015055446,,,,,,,,
7, 0.022946961,-0.038711164,-0.064390205,-307.420959473,-188.821899414,-2476.771972656, 0.014869541,,,,,,,,
8, 0.020420855,-0.040763084,-0.066191331,-307.440307617,-188.820571899,-2476.795898438, 0.014735024,,,,,,,,
9, 0.018134685,-0.042460706,-0.068459623,-307.436096191,-188.818832397,-2476.728759766, 0.014602031,,,,,,,,
10, 0.015816065,-0.044730783,-0.070145205,-307.446746826,-188.815841675,-2476.727050781, 0.014376964,,,,,,,,
11, 0.013446040,-0.045965564,-0.071068540,-307.457763672,-188.814132690,-2476.797363281, 0.015400980,,,,,,,,
12, 0.011051945,-0.047016587,-0.072031893,-307.480651855,-188.814331055,-2476.790283203, 0.015430566,,,,,,,,
13, 0.008669171,-0.048856623,-0.072465375,-307.527160645,-188.813583374,-2476.808105469, 0.015629327,,,,,,,,
14, 0.006802457,-0.050704569,-0.072635382,-307.545654297,-188.814910889,-2476.823730469, 0.015340000,,,,,,,,
15, 0.005478675,-0.053021871,-0.072671793,-307.571716309,-188.815078735,-2476.849853516, 0.016401000,,,,,,,,
16, 0.005039089,-0.054825731,-0.072715558,-307.537109375,-188.812728882,-2476.858886719, 0.017233089,,,,,,,,
17, 0.004895394,-0.057197090,-0.072605841,-307.506225586,-188.812332153,-2476.857421875, 0.016620608,,,,,,,,
18, 0.004716251,-0.058980133,-0.072322637,-307.472320557,-188.811828613,-2476.849609375, 0.016983660,,,,,,,,
19, 0.004102200,-0.060403138,-0.071730673,-307.459167480,-188.812469482,-2476.882080078, 0.017182745,,,,,,,,
20, 0.003011196,-0.061785590,-0.071292661,-307.462554932,-188.813858032,-2476.876953125, 0.015060347,,,,,,,,
21, 0.001500458,-0.061937630,-0.070719503,-307.481994629,-188.812179565,-2476.922607422, 0.015263880,,,,,,,,
22,-0.000193696,-0.062510341,-0.070615955,-307.520233154,-188.813201904,-2476.918212891, 0.017336579,,,,,,,,
23,-0.001693559,-0.062063739,-0.070952885,-307.550750732,-188.812393188,-2476.899169922, 0.016529536,,,,,,,,
24,-0.002682729,-0.062001597,-0.071493581,-307.559753418,-188.812454224,-2476.862304688, 0.016664082,,,,,,,,
25,-0.003100032,-0.062138878,-0.071633175,-307.548431396,-188.811981201,-2476.891845703, 0.016890483,,,,,,,,
26,-0.003124297,-0.062776394,-0.071841612,-307.526824951,-188.811721802,-2476.879150391, 0.018222529,,,,,,,,
27,-0.003123574,-0.063552484,-0.071514562,-307.510101318,-188.811141968,-2476.925537109, 0.018628001,,,,,,,,
28,-0.003180967,-0.063886128,-0.071337692,-307.491729736,-188.813110352,-2476.915771484, 0.018207887,,,,,,,,
29,-0.003512882,-0.064429037,-0.071242169,-307.494018555,-188.815780640,-2476.877685547, 0.017377634,,,,,,,,
30,-0.004044940,-0.064362958,-0.070727654,-307.501556396,-188.814132690,-2476.935546875, 0.018240070,,,,,,,,
31,-0.004643564,-0.064274505,-0.070625700,-307.520446777,-188.812805176,-2476.929687500, 0.017772792,,,,,,,,
32,-0.005072062,-0.064457193,-0.070547082,-307.520965576,-188.813842773,-2476.939453125, 0.017955020,,,,,,,,
33,-0.005409917,-0.064538777,-0.070349298,-307.510375977,-188.813354492,-2476.993164063, 0.018628687,,,,,,,,
34,-0.005812519,-0.064873949,-0.071002938,-307.516052246,-188.814300537,-2476.935302734, 0.017886549,,,,,,,,
35,-0.006278935,-0.064643890,-0.071563445,-307.520690918,-188.812957764,-2476.933593750, 0.017354995,,,,,,,,
36,-0.006737402,-0.064285733,-0.072101213,-307.522796631,-188.811264038,-2476.958496094, 0.019052114,,,,,,,,
37,-0.007095349,-0.064014256,-0.072735868,-307.513549805,-188.810104370,-2476.943847656, 0.017282935,,,,,,,,
38,-0.007443754,-0.063594289,-0.072898388,-307.523223877,-188.810455322,-2476.949951172, 0.019386046,,,,,,,,
39,-0.007567953,-0.063396804,-0.072975583,-307.518585205,-188.811294556,-2476.900390625, 0.017548490,,,,,,,,
40,-0.007656226,-0.063173130,-0.072181612,-307.519256592,-188.811843872,-2476.945800781, 0.018267760,,,,,,,,
41,-0.007634311,-0.062852062,-0.071614340,-307.514404297,-188.814102173,-2476.919433594, 0.018369159,,,,,,,,
42,-0.007639474,-0.062577918,-0.070687674,-307.507385254,-188.815292358,-2476.973876953, 0.018152580,,,,,,,,
43,-0.007648300,-0.062387154,-0.070580520,-307.514099121,-188.816970825,-2476.926025391, 0.017990995,,,,,,,,
44,-0.007645402,-0.062183402,-0.070367388,-307.514617920,-188.816116333,-2476.937255859, 0.018248647,,,,,,,,
45,-0.007525942,-0.061933659,-0.070517227,-307.502563477,-188.817871094,-2476.910888672, 0.017273558,,,,,,,,
46,-0.007509266,-0.061261352,-0.070754729,-307.510375977,-188.818283081,-2476.864746094, 0.017322872,,,,,,,,
47,-0.007477155,-0.060412385,-0.070493266,-307.506652832,-188.817932129,-2476.878906250, 0.017239301,,,,,,,,
48,-0.007513057,-0.060063224,-0.070234150,-307.514068604,-188.818771362,-2476.857666016, 0.016790578,,,,,,,,
49,-0.007544856,-0.059403501,-0.069840424,-307.505950928,-188.820480347,-2476.834472656, 0.015412124,,,,,,,,
50,-0.007636156,-0.058082279,-0.068929583,-307.511993408,-188.820541382,-2476.896240234, 0.017184209,,,,,,,,
51,-0.007701646,-0.057578754,-0.068280227,-307.511566162,-188.819885254,-2476.874511719, 0.017283319,,,,,,,,
52,-0.007840642,-0.056765392,-0.067379221,-307.515991211,-188.819671631,-2476.880371094, 0.017310278,,,,,,,,
53,-0.007935530,-0.056105860,-0.066473939,-307.507019043,-188.821090698,-2476.850830078, 0.015367198,,,,,,,,
54,-0.008129673,-0.054931354,-0.065046087,-307.511779785,-188.821517944,-2476.893798828, 0.017124888,,,,,,,,
55,-0.008325427,-0.053929038,-0.063748218,-307.524566650,-188.821792603,-2476.932128906, 0.016409513,,,,,,,,
56,-0.008386252,-0.052987739,-0.063022450,-307.530548096,-188.822494507,-2476.906982422, 0.017142536,,,,,,,,
57,-0.008229503,-0.052104391,-0.061971646,-307.509613037,-188.822158813,-2476.963134766, 0.015949586,,,,,,,,
58,-0.008047086,-0.050913498,-0.061188020,-307.490478516,-188.820693970,-2477.019775391, 0.017863309,,,,,,,,
59,-0.008041651,-0.049945947,-0.061283603,-307.477996826,-188.822067261,-2476.951660156, 0.016684864,,,,,,,,
60,-0.008366157,-0.048318692,-0.061134569,-307.472442627,-188.820709229,-2476.964599609, 0.016950380,,,,,,,,
61,-0.009055190,-0.046464536,-0.061236508,-307.471862793,-188.820938110,-2476.946777344, 0.016446494,,,,,,,,
62,-0.010198630,-0.043595236,-0.061592463,-307.498535156,-188.821182251,-2476.896240234, 0.017308841,,,,,,,,
63,-0.011593604,-0.040671401,-0.061460752,-307.547943115,-188.819488525,-2476.915527344, 0.016835427,,,,,,,,
64,-0.012612181,-0.038010791,-0.061176326,-307.572021484,-188.817489624,-2476.903076172, 0.016415523,,,,,,,,
65,-0.013077077,-0.035755303,-0.060538482,-307.561492920,-188.817596436,-2476.901611328, 0.016886650,,,,,,,,
66,-0.013238953,-0.035087567,-0.059428845,-307.552368164,-188.818176270,-2476.966796875, 0.016252099,,,,,,,,
67,-0.013144738,-0.034181755,-0.058987830,-307.537689209,-188.820617676,-2476.920166016, 0.016243665,,,,,,,,
68,-0.012989406,-0.033469155,-0.058437761,-307.519744873,-188.820861816,-2476.925781250, 0.015526422,,,,,,,,
69,-0.012998125,-0.032678153,-0.058486216,-307.529266357,-188.821380615,-2476.878173828, 0.016200699,,,,,,,,
70,-0.013091332,-0.032117300,-0.058233254,-307.543579102,-188.820526123,-2476.911621094, 0.016330551,,,,,,,,
71,-0.013035725,-0.032231711,-0.058186349,-307.535278320,-188.819641113,-2476.919921875, 0.016812680,,,,,,,,
72,-0.012992405,-0.032235350,-0.058065001,-307.532806396,-188.818969727,-2476.946777344, 0.016406978,,,,,,,,
73,-0.012904602,-0.032322027,-0.058365673,-307.531707764,-188.820755005,-2476.903808594, 0.016196687,,,,,,,,
74,-0.012865234,-0.031882148,-0.058376539,-307.534393311,-188.820739746,-2476.930419922, 0.016690940,,,,,,,,
75,-0.012807640,-0.031751752,-0.058677297,-307.521453857,-188.820999146,-2476.916503906, 0.016039427,,,,,,,,
76,-0.012851748,-0.031526316,-0.059154790,-307.514678955,-188.820907593,-2476.872558594, 0.016682543,,,,,,,,
77,-0.013066809,-0.031186776,-0.059343297,-307.509063721,-188.819961548,-2476.886962891, 0.016687401,,,,,,,,
78,-0.013459685,-0.030787200,-0.059463728,-307.519592285,-188.818649292,-2476.899414063, 0.016513949,,,,,,,,
79,-0.013843093,-0.030190656,-0.059627712,-307.524414063,-188.818069458,-2476.910644531, 0.015373014,,,,,,,,
80,-0.014204748,-0.029388148,-0.059868738,-307.532806396,-188.819061279,-2476.897216797, 0.016608937,,,,,,,,
81,-0.014399635,-0.028866574,-0.059893679,-307.519195557,-188.818710327,-2476.904296875, 0.015919002,,,,,,,,
82,-0.014719397,-0.028183440,-0.059814829,-307.530578613,-188.817520142,-2476.928710938, 0.016357301,,,,,,,,
83,-0.014949870,-0.027719138,-0.059949886,-307.531127930,-188.818786621,-2476.900634766, 0.015552657,,,,,,,,
84,-0.015207678,-0.027150689,-0.059943534,-307.548339844,-188.818328857,-2476.886474609, 0.016237309,,,,,,,,
85,-0.015226686,-0.026725827,-0.059510011,-307.539733887,-188.818130493,-2476.926513672, 0.016091798,,,,,,,,
86,-0.015208685,-0.026205445,-0.059344508,-307.540130615,-188.818481445,-2476.908691406, 0.016407458,,,,,,,,
87,-0.015149409,-0.025745453,-0.059042506,-307.533416748,-188.819534302,-2476.909912109, 0.016231138,,,,,,,,
88,-0.015065423,-0.025461784,-0.058783263,-307.524658203,-188.820602417,-2476.909179688, 0.016531527,,,,,,,,
89,-0.014970823,-0.024442369,-0.058494318,-307.507720947,-188.820373535,-2476.935546875, 0.015153773,,,,,,,,
90,-0.015042248,-0.023464771,-0.058650158,-307.497436523,-188.821563721,-2476.882080078, 0.015509972,,,,,,,,
91,-0.015422308,-0.022490038,-0.058517274,-307.505706787,-188.821807861,-2476.871093750, 0.015362332,,,,,,,,
92,-0.015974965,-0.021559484,-0.058383133,-307.516876221,-188.822738647,-2476.840576172, 0.015422356,,,,,,,,
93,-0.016611312,-0.020351648,-0.057847597,-307.540496826,-188.822692871,-2476.877441406, 0.014337152,,,,,,,,
94,-0.016997145,-0.019008238,-0.057286270,-307.543579102,-188.820770264,-2476.918212891, 0.015350091,,,,,,,,
95,-0.017191006,-0.017894970,-0.057159036,-307.541168213,-188.821914673,-2476.867431641, 0.014967076,,,,,,,,
96,-0.017246991,-0.016753836,-0.056863654,-307.538879395,-188.822860718,-2476.849365234, 0.015256359,,,,,,,,
97,-0.017141927,-0.015247953,-0.056107726,-307.527069092,-188.821487427,-2476.917236328, 0.015948296,,,,,,,,
98,-0.017133249,-0.014289909,-0.055725034,-307.529754639,-188.821136475,-2476.933837891, 0.015801851,,,,,,,,
99,-0.017139202,-0.013287725,-0.055590592,-307.531707764,-188.821228027,-2476.935791016, 0.016556920,,,,,,,,
100,-0.017145136,-0.012632966,-0.055800363,-307.517730713,-188.820678711,-2476.904785156, 0.014703364,,,,,,,,
101,-0.017312614,-0.012073724,-0.056152068,-307.524261475,-188.821929932,-2476.874267578, 0.015254336,,,,,,,,
102,-0.017475432,-0.011357981,-0.056171674,-307.523986816,-188.819534302,-2476.915283203, 0.013737235,,,,,,,,
103,-0.017683469,-0.010627117,-0.056396499,-307.531402588,-188.819534302,-2476.928222656, 0.015330778,,,,,,,,
104,-0.017793195,-0.010442324,-0.056492664,-307.528228760,-188.818466187,-2476.947021484, 0.015856521,,,,,,,,
105,-0.017959217,-0.010125777,-0.057092745,-307.537200928,-188.820526123,-2476.880615234, 0.015571708,,,,,,,,
106,-0.018024303,-0.009667179,-0.057050601,-307.546142578,-188.820877075,-2476.931152344, 0.015107259,,,,,,,,
107,-0.017997848,-0.009494407,-0.057448916,-307.549804688,-188.820343018,-2476.895507813, 0.014617063,,,,,,,,
108,-0.017758969,-0.009750836,-0.057622209,-307.532196045,-188.820953369,-2476.907714844, 0.015472265,,,,,,,,
109,-0.017479220,-0.009706817,-0.057793558,-307.520385742,-188.820709229,-2476.912597656, 0.013859230,,,,,,,,
110,-0.017353684,-0.009736162,-0.057700235,-307.527679443,-188.819747925,-2476.960937500, 0.014728487,,,,,,,,
111,-0.017191676,-0.009677191,-0.058008935,-307.515930176,-188.821594238,-2476.929931641, 0.015295788,,,,,,,,
112,-0.017240483,-0.009661617,-0.058154553,-307.516693115,-188.821929932,-2476.931640625, 0.015177697,,,,,,,,
113,-0.017345935,-0.009611647,-0.058446944,-307.508911133,-188.821716309,-2476.921875000, 0.014497969,,,,,,,,
114,-0.017630918,-0.009135847,-0.058688305,-307.519500732,-188.821075439,-2476.929931641, 0.015640870,,,,,,,,
115,-0.017954331,-0.009102412,-0.058973752,-307.516357422,-188.820892334,-2476.932128906, 0.014952079,,,,,,,,
116,-0.018403387,-0.008754112,-0.058992576,-307.527221680,-188.819427490,-2476.972167969, 0.014779410,,,,,,,,
117,-0.018828224,-0.008479746,-0.059367545,-307.535308838,-188.819366455,-2476.935302734, 0.014950529,,,,,,,,
118,-0.019138757,-0.008021410,-0.059375998,-307.542846680,-188.818496704,-2476.950195313, 0.013834856,,,,,,,,
119,-0.019206196,-0.007662718,-0.059422240,-307.533996582,-188.818450928,-2476.937988281, 0.014498999,,,,,,,,
120,-0.019195855,-0.007579034,-0.059400041,-307.533966064,-188.818649292,-2476.924072266, 0.014750379,,,,,,,,
121,-0.019051217,-0.007511442,-0.059229925,-307.517150879,-188.818954468,-2476.930908203, 0.014829642,,,,,,,,
122,-0.018963881,-0.007226794,-0.059166040,-307.507141113,-188.820037842,-2476.919189453, 0.014375573,,,,,,,,
123,-0.019033752,-0.007343814,-0.058788031,-307.518981934,-188.819152832,-2476.962158203, 0.015046063,,,,,,,,
124,-0.019018043,-0.007499113,-0.058806378,-307.506134033,-188.819625854,-2476.959472656, 0.014243030,,,,,,,,
125,-0.019188927,-0.007075742,-0.058650266,-307.508178711,-188.819335938,-2477.004638672, 0.015113348,,,,,,,,
126,-0.019475382,-0.006679198,-0.059340261,-307.509765625,-188.820846558,-2476.923828125, 0.014492863,,,,,,,,
127,-0.019880708,-0.006182570,-0.059284098,-307.519714355,-188.818984985,-2476.988037109, 0.014790439,,,,,,,,
128,-0.020199431,-0.005881217,-0.059828505,-307.510284424,-188.821136475,-2476.933593750, 0.014253647,,,,,,,,
129,-0.020557582,-0.005567375,-0.060025439,-307.516326904,-188.821060181,-2476.943603516, 0.015140774,,,,,,,,
130,-0.020866839,-0.005052965,-0.060107909,-307.524475098,-188.819808960,-2476.969482422, 0.015150528,,,,,,,,
131,-0.021042338,-0.004807372,-0.060218964,-307.524871826,-188.820220947,-2476.981933594, 0.015328092,,,,,,,,
132,-0.021107508,-0.004421426,-0.060599871,-307.525024414,-188.822036743,-2476.914306641, 0.015637826,,,,,,,,
133,-0.021078786,-0.003926842,-0.060256027,-307.525817871,-188.821166992,-2476.951660156, 0.016417444,,,,,,,,
134,-0.020890614,-0.004078722,-0.059950691,-307.512664795,-188.821594238,-2476.953857422, 0.015502391,,,,,,,,
135,-0.020686070,-0.003966221,-0.059615850,-307.500274658,-188.822921753,-2476.946289063, 0.014609271,,,,,,,,
136,-0.020582894,-0.003975243,-0.059420608,-307.493988037,-188.823516846,-2476.932128906, 0.014315285,,,,,,,,
137,-0.020607686,-0.003447828,-0.059179988,-307.500457764,-188.822814941,-2476.943847656, 0.014814679,,,,,,,,
138,-0.020681968,-0.003660827,-0.059107784,-307.487060547,-188.822906494,-2476.949218750, 0.013981721,,,,,,,,
139,-0.020951536,-0.003266617,-0.059105553,-307.499572754,-188.821334839,-2476.975830078, 0.015739879,,,,,,,,
140,-0.021279680,-0.003341797,-0.059868880,-307.516204834,-188.823348999,-2476.912597656, 0.015327150,,,,,,,,
141,-0.021477439,-0.002917607,-0.060415249,-307.523773193,-188.822937012,-2476.900634766, 0.015731780,,,,,,,,
142,-0.021518249,-0.002529333,-0.061055861,-307.527252197,-188.821884155,-2476.873046875, 0.015043400,,,,,,,,
143,-0.021398408,-0.002607662,-0.061082322,-307.514556885,-188.821716309,-2476.927490234, 0.014960326,,,,,,,,
144,-0.021290636,-0.002468848,-0.061169587,-307.513031006,-188.821533203,-2476.940917969, 0.015182289,,,,,,,,
145,-0.021223331,-0.002575430,-0.061238341,-307.504394531,-188.822875977,-2476.926269531, 0.015348988,,,,,,,,
146,-0.021267790,-0.002462779,-0.061193235,-307.509216309,-188.823699951,-2476.914062500, 0.015549496,,,,,,,,
147,-0.021391056,-0.002401419,-0.060784508,-307.512268066,-188.822586060,-2476.953857422, 0.014989199,,,,,,,,
148,-0.021581996,-0.002156461,-0.060510159,-307.518768311,-188.822387695,-2476.963623047, 0.015193758,,,,,,,,
149,-0.021671977,-0.002083254,-0.060559232,-307.511718750,-188.823059082,-2476.920898438, 0.015185422,,,,,,,,
150,-0.021805486,-0.001713605,-0.060285579,-307.516967773,-188.821975708,-2476.969482422, 0.015675593,,,,,,,,
151,-0.021925408,-0.001534552,-0.060570940,-307.520446777,-188.822631836,-2476.943603516, 0.015092193,,,,,,,,
152,-0.021970818,-0.001808051,-0.060848713,-307.520080566,-188.822433472,-2476.930175781, 0.015007742,,,,,,,,
153,-0.021870805,-0.001619160,-0.061113689,-307.507446289,-188.822219849,-2476.938964844, 0.015085692,,,,,,,,
154,-0.021853197,-0.001943975,-0.061382100,-307.503936768,-188.823028564,-2476.951904297, 0.014972755,,,,,,,,
155,-0.021983985,-0.001606249,-0.061866298,-307.519226074,-188.823791504,-2476.939697266, 0.015446203,,,,,,,,
156,-0.022071853,-0.001526972,-0.062441051,-307.526428223,-188.823089600,-2476.918457031, 0.015783343,,,,,,,,
157,-0.021998441,-0.001497339,-0.062802337,-307.518005371,-188.822555542,-2476.910156250, 0.015835272,,,,,,,,
158,-0.021899963,-0.001584538,-0.062705658,-307.491760254,-188.821838379,-2476.936767578, 0.015528928,,,,,,,,
159,-0.022173034,-0.001691807,-0.062706731,-307.504791260,-188.821533203,-2476.925292969, 0.014579020,,,,,,,,
160,-0.022502063,-0.001871911,-0.062731996,-307.507995605,-188.823318481,-2476.902587891, 0.014311052,,,,,,,,
161,-0.022825439,-0.001185460,-0.062473644,-307.510955811,-188.823730469,-2476.935791016, 0.015263234,,,,,,,,
162,-0.023073938,-0.000834327,-0.062423721,-307.513763428,-188.821258545,-2476.955566406, 0.015505633,,,,,,,,
163,-0.023201711,-0.000785322,-0.062856801,-307.507995605,-188.821975708,-2476.886718750, 0.013541268,,,,,,,,
164,-0.023289595,-0.000976247,-0.062554605,-307.497344971,-188.821411133,-2476.943359375, 0.014660510,,,,,,,,
165,-0.023481375,-0.000814747,-0.062598497,-307.509948730,-188.821746826,-2476.937500000, 0.013590006,,,,,,,,
166,-0.023571581,-0.000567110,-0.062703542,-307.513916016,-188.821945190,-2476.936523438, 0.013530312,,,,,,,,
167,-0.023517057,-0.000667004,-0.062888883,-307.519836426,-188.821807861,-2476.913085938, 0.014137506,,,,,,,,
168,-0.023268683,-0.000530849,-0.062922187,-307.514434814,-188.821456909,-2476.892089844, 0.014179105,,,,,,,,
169,-0.023019431,-0.000519176,-0.062604152,-307.513580322,-188.822509766,-2476.911132813, 0.014832082,,,,,,,,
170,-0.022755366,-0.000765640,-0.062364601,-307.502624512,-188.824295044,-2476.919921875, 0.014797419,,,,,,,,
171,-0.022649609,-0.000835560,-0.062139109,-307.499328613,-188.825149536,-2476.952148438, 0.013768397,,,,,,,,
172,-0.022589616,-0.000628094,-0.062422387,-307.489227295,-188.825256348,-2476.921875000, 0.013838036,,,,,,,,
173,-0.022745708,-0.000598894,-0.062675878,-307.492980957,-188.823913574,-2476.907714844, 0.014607578,,,,,,,,
174,-0.023019182,-0.000267957,-0.063028768,-307.495605469,-188.824066162,-2476.863525391, 0.014640303,,,,,,,,
175,-0.023477850,-0.000346445,-0.062578261,-307.510467529,-188.823593140,-2476.939697266, 0.013736312,,,,,,,,
176,-0.023813872,-0.000262658,-0.062469121,-307.514160156,-188.823837280,-2476.959960938, 0.015412500,,,,,,,,
177,-0.024077225, 0.000006943,-0.062586352,-307.529663086,-188.824157715,-2476.969726563, 0.015524488,,,,,,,,
178,-0.024080945, 0.000352745,-0.063292563,-307.529113770,-188.823516846,-2476.916015625, 0.014783627,,,,,,,,
179,-0.023878833, 0.000381339,-0.063719831,-307.518890381,-188.822433472,-2476.916015625, 0.014858915,,,,,,,,
180,-0.023594629, 0.000453799,-0.064433604,-307.505859375,-188.824569702,-2476.859863281, 0.015053255,,,,,,,,
