Number of frames: 282
Frequency: 100
Units: rad/mm

Frame,Pen1_tip Rz,Pen1_tip Ry,Pen1_tip Rx,Pen1_tip x,Pen1_tip y,Pen1_tip z,Pen1_tip Error,Pen2_tip2 Rz,Pen2_tip2 Ry,Pen2_tip2 Rx,Pen2_tip2 x,Pen2_tip2 y,Pen2_tip2 z,Pen2_tip2 Error
1, 0.059974909, 0.051488020, 0.030865332,-309.646484375,-188.245010376,-2567.452636719, 0.015127931,,,,,,,,
2, 0.058669884, 0.051023092, 0.029082214,-309.663116455,-188.245010376,-2567.471191406, 0.014904581,,,,,,,,
3, 0.057905372, 0.050066903, 0.027177701,-309.631286621,-188.253082275,-2567.416015625, 0.013475827,,,,,,,,
4, 0.057319112, 0.049562767, 0.025731813,-309.614868164,-188.254653931,-2567.415527344, 0.014327926,,,,,,,,
5, 0.056668412, 0.048309438, 0.024374552,-309.598297119,-188.253112793,-2567.427978516, 0.013572696,,,,,,,,
6, 0.055816244, 0.047173962, 0.023320986,-309.592041016,-188.244201660,-2567.511962891, 0.014863182,,,,,,,,
7, 0.054601446, 0.046800476, 0.021610795,-309.607116699,-188.244338989,-2567.535400391, 0.014788392,,,,,,,,
8, 0.053074796, 0.046639655, 0.019385962,-309.626861572,-188.246734619,-2567.508544922, 0.015575314,,,,,,,,
9, 0.051449925, 0.046308089, 0.017482497,-309.636260986,-188.243225098,-2567.534667969, 0.014929349,,,,,,,,
10, 0.049809109, 0.045989916, 0.015378017,-309.643981934,-188.246841431,-2567.506347656, 0.014599841,,,,,,,,
11, 0.048261940, 0.045006536, 0.013446369,-309.628631592,-188.248519897,-2567.470703125, 0.013402402,,,,,,,,
12, 0.046777576, 0.044838510, 0.011745557,-309.632995605,-188.250274658,-2567.459960938, 0.013193032,,,,,,,,
13, 0.045328677, 0.044304360, 0.010644179,-309.646453857,-188.246444702,-2567.525878906, 0.013684653,,,,,,,,
14, 0.044073075, 0.043238509, 0.009365410,-309.632019043,-188.245620728,-2567.524414063, 0.014745629,,,,,,,,
15, 0.042910464, 0.043322947, 0.008267502,-309.653350830,-188.243469238,-2567.569335938, 0.014625148,,,,,,,,
16, 0.041982304, 0.043028641, 0.006947116,-309.667816162,-188.242340088,-2567.595214844, 0.014596876,,,,,,,,
17, 0.041422296, 0.042238627, 0.005275220,-309.652862549,-188.245300293,-2567.575195313, 0.015806116,,,,,,,,
18, 0.041037071, 0.041514315, 0.003684891,-309.616149902,-188.245025635,-2567.581542969, 0.015674420,,,,,,,,
19, 0.040323064, 0.040570851, 0.001507016,-309.589996338,-188.250442505,-2567.526123047, 0.015302236,,,,,,,,
20, 0.039120745, 0.040231165,-0.001236244,-309.596374512,-188.260177612,-2567.418457031, 0.013236934,,,,,,,,
21, 0.037601929, 0.039961383,-0.003422589,-309.616882324,-188.261230469,-2567.426269531, 0.014608040,,,,,,,,
22, 0.036110993, 0.040696096,-0.005436115,-309.630493164,-188.258987427,-2567.473876953, 0.016068578,,,,,,,,
23, 0.034659475, 0.041242253,-0.007455901,-309.647552490,-188.256759644,-2567.506347656, 0.018117497,,,,,,,,
24, 0.033356480, 0.041565724,-0.009754756,-309.652130127,-188.259811401,-2567.471679688, 0.017149536,,,,,,,,
25, 0.032229818, 0.042243548,-0.011651990,-309.652648926,-188.259368896,-2567.458007813, 0.016523888,,,,,,,,
26, 0.031282652, 0.042647526,-0.013621362,-309.650207520,-188.267364502,-2567.344726563, 0.015972184,,,,,,,,
27, 0.030612664, 0.042406369,-0.014401079,-309.654846191,-188.270263672,-2567.308105469, 0.014642601,,,,,,,,
28, 0.030382959, 0.042306483,-0.014038890,-309.643341064,-188.268432617,-2567.343261719, 0.015085828,,,,,,,,
29, 0.030299997, 0.041615736,-0.013315745,-309.644165039,-188.272048950,-2567.349853516, 0.015998598,,,,,,,,
30, 0.030451968, 0.041066177,-0.011996078,-309.636993408,-188.264633179,-2567.451171875, 0.016224137,,,,,,,,
31, 0.030570118, 0.040654894,-0.011247733,-309.637329102,-188.263519287,-2567.470703125, 0.017472517,,,,,,,,
32, 0.030758120, 0.040384039,-0.010783570,-309.619720459,-188.260696411,-2567.487548828, 0.017555332,,,,,,,,
33, 0.030671062, 0.040360153,-0.010744818,-309.628234863,-188.260986328,-2567.492187500, 0.017313065,,,,,,,,
34, 0.030467212, 0.040468544,-0.011180494,-309.632751465,-188.263076782,-2567.449462891, 0.016944386,,,,,,,,
35, 0.030260952, 0.040442254,-0.011640502,-309.635498047,-188.266555786,-2567.412841797, 0.016630396,,,,,,,,
36, 0.030132420, 0.040259741,-0.011606846,-309.626770020,-188.263198853,-2567.450683594, 0.016804878,,,,,,,,
37, 0.029944994, 0.040372211,-0.011872521,-309.629943848,-188.263992310,-2567.441650391, 0.016399354,,,,,,,,
38, 0.029712655, 0.040267337,-0.012194704,-309.636596680,-188.266006470,-2567.416015625, 0.017165281,,,,,,,,
39, 0.029535389, 0.040412750,-0.012359061,-309.638183594,-188.267883301,-2567.404541016, 0.016112795,,,,,,,,
40, 0.029326990, 0.040079862,-0.012198592,-309.638000488,-188.264251709,-2567.452148438, 0.016020896,,,,,,,,
41, 0.029010622, 0.039490134,-0.012486679,-309.643615723,-188.266189575,-2567.425292969, 0.016334929,,,,,,,,
42, 0.028696986, 0.040014643,-0.012660738,-309.663574219,-188.266906738,-2567.423583984, 0.016329113,,,,,,,,
43, 0.028490627, 0.039845079,-0.013175043,-309.669097900,-188.272811890,-2567.376708984, 0.016551401,,,,,,,,
44, 0.028493317, 0.039668988,-0.013243458,-309.662353516,-188.271118164,-2567.409179688, 0.015971294,,,,,,,,
45, 0.028565688, 0.039896768,-0.013701140,-309.655670166,-188.273178101,-2567.383300781, 0.015985236,,,,,,,,
46, 0.028597875, 0.039986555,-0.014461406,-309.647033691,-188.277603149,-2567.302246094, 0.016103093,,,,,,,,
47, 0.028563006, 0.039882582,-0.014558819,-309.632385254,-188.276184082,-2567.323242188, 0.015393131,,,,,,,,
48, 0.028326157, 0.039838944,-0.014571324,-309.639495850,-188.276596069,-2567.354980469, 0.015319621,,,,,,,,
49, 0.027977055, 0.040137146,-0.014705324,-309.655364990,-188.276519775,-2567.369140625, 0.014855560,,,,,,,,
50, 0.027708400, 0.040143199,-0.015204428,-309.656372070,-188.278594971,-2567.316894531, 0.015511205,,,,,,,,
51, 0.027484234, 0.040103808,-0.015188128,-309.658874512,-188.278549194,-2567.332519531, 0.015493700,,,,,,,,
52, 0.027325749, 0.039900683,-0.015167745,-309.653625488,-188.278793335,-2567.337646484, 0.015322287,,,,,,,,
53, 0.027164605, 0.039407048,-0.015279499,-309.652770996,-188.279067993,-2567.339843750, 0.015648238,,,,,,,,
54, 0.027069621, 0.039408825,-0.015439819,-309.647125244,-188.277664185,-2567.349121094, 0.014305286,,,,,,,,
55, 0.026892900, 0.039167505,-0.015865296,-309.654632568,-188.280410767,-2567.313476563, 0.014802781,,,,,,,,
56, 0.026812715, 0.039113142,-0.016179962,-309.637878418,-188.280227661,-2567.292968750, 0.015139339,,,,,,,,
57, 0.026582951, 0.039323643,-0.016222596,-309.651702881,-188.277679443,-2567.316162109, 0.014608885,,,,,,,,
58, 0.026496045, 0.039455786,-0.016411206,-309.644195557,-188.279312134,-2567.298339844, 0.014026637,,,,,,,,
59, 0.026385915, 0.039581101,-0.016313791,-309.642272949,-188.278182983,-2567.323486328, 0.013812476,,,,,,,,
60, 0.026207764, 0.039851859,-0.016275954,-309.649902344,-188.276062012,-2567.350341797, 0.014176432,,,,,,,,
61, 0.025956031, 0.039460562,-0.016825281,-309.648315430,-188.279418945,-2567.290527344, 0.013908957,,,,,,,,
62, 0.025662370, 0.039477281,-0.017120084,-309.664703369,-188.280288696,-2567.281005859, 0.014052675,,,,,,,,
63, 0.025541769, 0.039345052,-0.017173516,-309.661407471,-188.280670166,-2567.298583984, 0.014527163,,,,,,,,
64, 0.025513496, 0.039248120,-0.017261237,-309.654052734,-188.282363892,-2567.284912109, 0.014835033,,,,,,,,
65, 0.025529232, 0.038687848,-0.017346604,-309.640808105,-188.285476685,-2567.251464844, 0.013914919,,,,,,,,
66, 0.025447277, 0.038515735,-0.016968034,-309.639495850,-188.283660889,-2567.300537109, 0.013386282,,,,,,,,
67, 0.025238954, 0.038360465,-0.016693022,-309.652252197,-188.282699585,-2567.333007813, 0.013734069,,,,,,,,
68, 0.025009172, 0.038664166,-0.016843831,-309.658721924,-188.285202026,-2567.307373047, 0.013904652,,,,,,,,
69, 0.024767509, 0.038803451,-0.017034810,-309.660339355,-188.284759521,-2567.303222656, 0.014271257,,,,,,,,
70, 0.024543604, 0.038734954,-0.017242378,-309.662261963,-188.285034180,-2567.303222656, 0.014073787,,,,,,,,
71, 0.024367929, 0.038382351,-0.017415794,-309.659118652,-188.284851074,-2567.295166016, 0.014970793,,,,,,,,
72, 0.024204785, 0.038134694,-0.017278727,-309.662597656,-188.282546997,-2567.332275391, 0.014253412,,,,,,,,
73, 0.024108149, 0.038139515,-0.017295441,-309.653106689,-188.281402588,-2567.330566406, 0.014424914,,,,,,,,
74, 0.023868162, 0.037930138,-0.017413596,-309.660308838,-188.282058716,-2567.313720703, 0.014578056,,,,,,,,
75, 0.023632180, 0.037658263,-0.017523458,-309.660278320,-188.283264160,-2567.294677734, 0.015037281,,,,,,,,
76, 0.023404337, 0.037372001,-0.017292477,-309.659790039,-188.279159546,-2567.337158203, 0.014812049,,,,,,,,
77, 0.023186050, 0.037187289,-0.017544597,-309.657623291,-188.281417847,-2567.297851563, 0.015403689,,,,,,,,
78, 0.023016041, 0.036972675,-0.017576765,-309.657897949,-188.282058716,-2567.294921875, 0.015157284,,,,,,,,
79, 0.022924488, 0.037088610,-0.017258722,-309.659423828,-188.277893066,-2567.370849609, 0.015377617,,,,,,,,
80, 0.022908734, 0.036914002,-0.017815234,-309.640228271,-188.281417847,-2567.302246094, 0.015285993,,,,,,,,
81, 0.022749936, 0.036945652,-0.017925872,-309.649475098,-188.280242920,-2567.318115234, 0.015129278,,,,,,,,
82, 0.022544285, 0.036679067,-0.017972877,-309.648254395,-188.279556274,-2567.326660156, 0.015065293,,,,,,,,
83, 0.022286331, 0.036528934,-0.017755564,-309.655792236,-188.276718140,-2567.378173828, 0.015098857,,,,,,,,
84, 0.022030493, 0.036370121,-0.017717058,-309.660614014,-188.277954102,-2567.399169922, 0.014853731,,,,,,,,
85, 0.021831220, 0.036112316,-0.018132502,-309.658813477,-188.280441284,-2567.353271484, 0.015059729,,,,,,,,
86, 0.021704365, 0.036008526,-0.018268501,-309.653930664,-188.279052734,-2567.366943359, 0.015794100,,,,,,,,
87, 0.021522559, 0.035937704,-0.018488256,-309.654785156,-188.278808594,-2567.379882813, 0.014734913,,,,,,,,
88, 0.021283291, 0.035953440,-0.018704759,-309.663024902,-188.278961182,-2567.388183594, 0.015190892,,,,,,,,
89, 0.021033579, 0.035858337,-0.019028269,-309.661895752,-188.279830933,-2567.374267578, 0.015219454,,,,,,,,
90, 0.020721305, 0.035847954,-0.018987639,-309.676818848,-188.277969360,-2567.416748047, 0.015770931,,,,,,,,
91, 0.020533051, 0.035956651,-0.019338885,-309.673217773,-188.279922485,-2567.383544922, 0.015065704,,,,,,,,
92, 0.020319840, 0.035855621,-0.019338474,-309.671752930,-188.278411865,-2567.407226563, 0.014599185,,,,,,,,
93, 0.020100208, 0.035796445,-0.019538064,-309.681640625,-188.278686523,-2567.413330078, 0.016019475,,,,,,,,
94, 0.020011174, 0.035613395,-0.019790282,-309.670928955,-188.278656006,-2567.399658203, 0.015942378,,,,,,,,
95, 0.019878378, 0.035090405,-0.019944087,-309.676086426,-188.278137207,-2567.396972656, 0.015283030,,,,,,,,
96, 0.019810246, 0.035004865,-0.020062406,-309.687042236,-188.278289795,-2567.399414063, 0.016258650,,,,,,,,
97, 0.019963557, 0.034855094,-0.020244662,-309.675170898,-188.278747559,-2567.401123047, 0.015287545,,,,,,,,
98, 0.020114627, 0.034785420,-0.020534797,-309.673217773,-188.280044556,-2567.375976563, 0.015784152,,,,,,,,
99, 0.020304587, 0.034660142,-0.020508045,-309.665283203,-188.275390625,-2567.431396484, 0.016091427,,,,,,,,
100, 0.020406844, 0.034834709,-0.020654289,-309.657165527,-188.273681641,-2567.441650391, 0.015803216,,,,,,,,
101, 0.020315705, 0.035134997,-0.020691266,-309.654449463,-188.272094727,-2567.465332031, 0.015477492,,,,,,,,
102, 0.019965235, 0.035044905,-0.021037588,-309.655670166,-188.274612427,-2567.417236328, 0.016674221,,,,,,,,
103, 0.019524029, 0.034770492,-0.020943278,-309.656921387,-188.272842407,-2567.440673828, 0.016416103,,,,,,,,
104, 0.019030921, 0.034330491,-0.020877607,-309.663299561,-188.273788452,-2567.431396484, 0.016451063,,,,,,,,
105, 0.018604804, 0.034096394,-0.021003136,-309.670410156,-188.277694702,-2567.382080078, 0.016503448,,,,,,,,
106, 0.018311221, 0.033899076,-0.020606149,-309.689880371,-188.275527954,-2567.443115234, 0.016294761,,,,,,,,
107, 0.018346520, 0.033682499,-0.020722685,-309.673187256,-188.275207520,-2567.426757813, 0.016890990,,,,,,,,
108, 0.018467916, 0.033706103,-0.020664293,-309.660766602,-188.273941040,-2567.449462891, 0.016578823,,,,,,,,
109, 0.018562529, 0.033968166,-0.021057134,-309.658111572,-188.276779175,-2567.405761719, 0.017155375,,,,,,,,
110, 0.018631117, 0.033859529,-0.021169975,-309.652984619,-188.277801514,-2567.403808594, 0.017074294,,,,,,,,
111, 0.018632034, 0.033826299,-0.021117153,-309.657379150,-188.278549194,-2567.430175781, 0.016872689,,,,,,,,
112, 0.018610453, 0.033600733,-0.021058347,-309.652648926,-188.278396606,-2567.446044922, 0.016652888,,,,,,,,
113, 0.018508481, 0.033822089,-0.021010593,-309.650878906,-188.277206421,-2567.468017578, 0.016952345,,,,,,,,
114, 0.018285973, 0.033642415,-0.021324176,-309.651794434,-188.278198242,-2567.442871094, 0.016623251,,,,,,,,
115, 0.018014997, 0.033492859,-0.021518355,-309.653198242,-188.278488159,-2567.438476563, 0.016875861,,,,,,,,
116, 0.017748643, 0.033311576,-0.021601712,-309.658905029,-188.277313232,-2567.439208984, 0.017018251,,,,,,,,
117, 0.017540997, 0.033448052,-0.021530218,-309.660217285,-188.275070190,-2567.453369141, 0.016664650,,,,,,,,
118, 0.017344596, 0.033268236,-0.021426074,-309.667419434,-188.273742676,-2567.476318359, 0.017464893,,,,,,,,
119, 0.017267875, 0.032813013,-0.021482423,-309.655792236,-188.272735596,-2567.469726563, 0.017436109,,,,,,,,
120, 0.017175602, 0.032906439,-0.021758292,-309.646728516,-188.273620605,-2567.432128906, 0.016968202,,,,,,,,
121, 0.016954755, 0.033086471,-0.021862723,-309.655944824,-188.274627686,-2567.419433594, 0.016475545,,,,,,,,
122, 0.016700851, 0.033189069,-0.021791849,-309.661651611,-188.274002075,-2567.425537109, 0.016757429,,,,,,,,
123, 0.016462782, 0.033022471,-0.021499563,-309.673583984,-188.271453857,-2567.477294922, 0.016482558,,,,,,,,
124, 0.016366336, 0.032888282,-0.021812776,-309.671508789,-188.275329590,-2567.422851563, 0.016820338,,,,,,,,
125, 0.016399175, 0.032814343,-0.021808874,-309.664886475,-188.275848389,-2567.426269531, 0.016979290,,,,,,,,
126, 0.016504444, 0.032794926,-0.021666961,-309.654693604,-188.273788452,-2567.457275391, 0.016832283,,,,,,,,
127, 0.016492056, 0.032495741,-0.021995319,-309.652160645,-188.276870728,-2567.415527344, 0.016485021,,,,,,,,
128, 0.016451465, 0.032368481,-0.021874746,-309.647766113,-188.275802612,-2567.440185547, 0.016663883,,,,,,,,
129, 0.016323395, 0.032503832,-0.021895066,-309.649078369,-188.276275635,-2567.445312500, 0.017046191,,,,,,,,
130, 0.016074535, 0.032491788,-0.021986114,-309.654418945,-188.275863647,-2567.436279297, 0.016509313,,,,,,,,
131, 0.015761707, 0.032434642,-0.022024736,-309.664367676,-188.275222778,-2567.439941406, 0.017212521,,,,,,,,
132, 0.015551698, 0.032130677,-0.022234108,-309.652069092,-188.278381348,-2567.406250000, 0.016794425,,,,,,,,
133, 0.015260478, 0.031811155,-0.022060724,-309.666107178,-188.278244019,-2567.428955078, 0.016243437,,,,,,,,
134, 0.015050597, 0.031726133,-0.021704327,-309.677032471,-188.273712158,-2567.492431641, 0.016923755,,,,,,,,
135, 0.014994533, 0.031987313,-0.022084562,-309.671661377,-188.276412964,-2567.440185547, 0.017549125,,,,,,,,
136, 0.015030274, 0.032375354,-0.022420498,-309.660156250,-188.277893066,-2567.406494141, 0.017453022,,,,,,,,
137, 0.015002008, 0.032569159,-0.022349477,-309.660461426,-188.274230957,-2567.447509766, 0.016634088,,,,,,,,
138, 0.014908011, 0.032454379,-0.022504443,-309.657196045,-188.273452759,-2567.453857422, 0.016867766,,,,,,,,
139, 0.014773073, 0.032338530,-0.022659443,-309.652984619,-188.273468018,-2567.444580078, 0.017529434,,,,,,,,
140, 0.014549595, 0.032586578,-0.022724280,-309.662139893,-188.273895264,-2567.433593750, 0.017445954,,,,,,,,
141, 0.014338356, 0.032530345,-0.022730311,-309.667358398,-188.273391724,-2567.432617188, 0.016653251,,,,,,,,
142, 0.014160549, 0.032470535,-0.022597680,-309.670013428,-188.271392822,-2567.452392578, 0.016743332,,,,,,,,
143, 0.014018358, 0.032035202,-0.022624269,-309.664459229,-188.272354126,-2567.437255859, 0.017619606,,,,,,,,
144, 0.013886621, 0.031785127,-0.022571469,-309.664733887,-188.271392822,-2567.435791016, 0.016535630,,,,,,,,
145, 0.013732735, 0.031713273,-0.022503905,-309.667938232,-188.270263672,-2567.450195313, 0.017160598,,,,,,,,
146, 0.013662527, 0.031530712,-0.022562429,-309.656616211,-188.270507813,-2567.462402344, 0.016641056,,,,,,,,
147, 0.013579136, 0.031725518,-0.022818679,-309.659759521,-188.269500732,-2567.462402344, 0.015979690,,,,,,,,
148, 0.013529670, 0.031999290,-0.023250276,-309.660034180,-188.272384644,-2567.421875000, 0.016695034,,,,,,,,
149, 0.013467026, 0.031892840,-0.023213379,-309.657379150,-188.271194458,-2567.440673828, 0.017415855,,,,,,,,
150, 0.013296742, 0.031888049,-0.023073951,-309.659362793,-188.271697998,-2567.439697266, 0.017353171,,,,,,,,
151, 0.013085037, 0.031687792,-0.022646084,-309.665893555,-188.270629883,-2567.484375000, 0.017084058,,,,,,,,
152, 0.012883970, 0.031502578,-0.022473892,-309.670684814,-188.270187378,-2567.482666016, 0.016347036,,,,,,,,
153, 0.012812196, 0.031150803,-0.022608941,-309.658752441,-188.274230957,-2567.432128906, 0.017009081,,,,,,,,
154, 0.012752694, 0.031240104,-0.022203911,-309.659454346,-188.270629883,-2567.500000000, 0.016807780,,,,,,,,
155, 0.012609319, 0.031082956,-0.022556301,-309.652648926,-188.272445679,-2567.461181641, 0.016240045,,,,,,,,
156, 0.012314685, 0.030927818,-0.022811431,-309.662567139,-188.272338867,-2567.444091797, 0.016157305,,,,,,,,
157, 0.012016471, 0.030915760,-0.022934858,-309.668640137,-188.272003174,-2567.456298828, 0.016913913,,,,,,,,
158, 0.011738782, 0.031061003,-0.023057986,-309.679412842,-188.272003174,-2567.457763672, 0.016527105,,,,,,,,
159, 0.011641415, 0.030816255,-0.023749860,-309.666351318,-188.275878906,-2567.361328125, 0.016144687,,,,,,,,
160, 0.011559648, 0.031058010,-0.023472505,-309.665832520,-188.270080566,-2567.438232422, 0.016437562,,,,,,,,
161, 0.011506677, 0.031140815,-0.023541648,-309.652954102,-188.269790649,-2567.432617188, 0.016303498,,,,,,,,
162, 0.011265291, 0.030901609,-0.023695651,-309.657012939,-188.271286011,-2567.395751953, 0.016909743,,,,,,,,
163, 0.011009254, 0.030846421,-0.023591695,-309.659423828,-188.270980835,-2567.397949219, 0.016911991,,,,,,,,
164, 0.010716475, 0.030604104,-0.023458082,-309.666076660,-188.272155762,-2567.390625000, 0.016254367,,,,,,,,
165, 0.010449295, 0.030376336,-0.023071278,-309.683044434,-188.270217896,-2567.430175781, 0.017132839,,,,,,,,
166, 0.010418660, 0.030400395,-0.022941776,-309.679290771,-188.270309448,-2567.438720703, 0.016944135,,,,,,,,
167, 0.010504550, 0.030547708,-0.022987293,-309.671112061,-188.270111084,-2567.437988281, 0.017456260,,,,,,,,
168, 0.010578121, 0.030551007,-0.023055375,-309.666778564,-188.268783569,-2567.457763672, 0.016837239,,,,,,,,
169, 0.010567052, 0.031036355,-0.023297364,-309.678314209,-188.269577026,-2567.454589844, 0.016893476,,,,,,,,
170, 0.010588849, 0.031132802,-0.023835434,-309.668426514,-188.272247314,-2567.407714844, 0.016447339,,,,,,,,
171, 0.010516404, 0.031731781,-0.023987114,-309.673858643,-188.271972656,-2567.433593750, 0.016409030,,,,,,,,
172, 0.010383458, 0.032219715,-0.024464836,-309.681365967,-188.274948120,-2567.395507813, 0.017039534,,,,,,,,
173, 0.010380589, 0.032215644,-0.024717433,-309.662750244,-188.274017334,-2567.397949219, 0.015745893,,,,,,,,
174, 0.010216261, 0.031825040,-0.024744263,-309.666839600,-188.272674561,-2567.416503906, 0.016152071,,,,,,,,
175, 0.009935456, 0.031897619,-0.024799610,-309.678009033,-188.273086548,-2567.399658203, 0.016510254,,,,,,,,
176, 0.009694567, 0.031744424,-0.024559826,-309.683258057,-188.271728516,-2567.423095703, 0.016849495,,,,,,,,
177, 0.009526488, 0.031513490,-0.024353886,-309.693420410,-188.272079468,-2567.429443359, 0.016618311,,,,,,,,
178, 0.009608336, 0.031654462,-0.024345970,-309.673980713,-188.272842407,-2567.410156250, 0.017052893,,,,,,,,
179, 0.009719972, 0.031553205,-0.024319170,-309.663543701,-188.272460938,-2567.426269531, 0.016889736,,,,,,,,
180, 0.009756909, 0.031737570,-0.024509897,-309.665222168,-188.271209717,-2567.411376953, 0.015876882,,,,,,,,
