Number of frames: 297
Frequency: 100
Units: rad/mm

Frame,Pen1_tip Rz,Pen1_tip Ry,Pen1_tip Rx,Pen1_tip x,Pen1_tip y,Pen1_tip z,Pen1_tip Error,Pen2_tip2 Rz,Pen2_tip2 Ry,Pen2_tip2 Rx,Pen2_tip2 x,Pen2_tip2 y,Pen2_tip2 z,Pen2_tip2 Error
1, 0.052069619, 0.287161499,-0.038207330,-308.950927734,-188.238418579,-2571.542236328, 0.016353164,,,,,,,,
2, 0.051801622, 0.287720352,-0.037518315,-308.973052979,-188.240554810,-2571.536865234, 0.016985759,,,,,,,,
3, 0.051499527, 0.288351566,-0.037183255,-308.984130859,-188.242019653,-2571.511962891, 0.017908137,,,,,,,,
4, 0.051332790, 0.289380193,-0.036868982,-308.999664307,-188.242782593,-2571.521484375, 0.017984383,,,,,,,,
5, 0.051344410, 0.289942831,-0.036643509,-308.998260498,-188.242706299,-2571.539550781, 0.017675588,,,,,,,,
6, 0.051423222, 0.290371686,-0.036783814,-308.993957520,-188.243164063,-2571.513671875, 0.016571244,,,,,,,,
7, 0.051642586, 0.290985763,-0.036814913,-308.978240967,-188.242355347,-2571.515869141, 0.017507186,,,,,,,,
8, 0.051862448, 0.291337997,-0.036780253,-308.963439941,-188.242218018,-2571.524658203, 0.017704168,,,,,,,,
9, 0.051904071, 0.291451097,-0.036829527,-308.944000244,-188.241455078,-2571.509765625, 0.017358949,,,,,,,,
10, 0.051689625, 0.292108297,-0.036795847,-308.930450439,-188.242324829,-2571.498779297, 0.017224971,,,,,,,,
11, 0.051154353, 0.292949140,-0.036656585,-308.948760986,-188.244918823,-2571.490966797, 0.016856682,,,,,,,,
12, 0.050581992, 0.293853194,-0.036391363,-308.977325439,-188.249069214,-2571.498046875, 0.017208755,,,,,,,,
13, 0.050360538, 0.294490755,-0.035737175,-309.001464844,-188.250793457,-2571.561035156, 0.017085372,,,,,,,,
14, 0.050444655, 0.295435071,-0.035827309,-308.989410400,-188.254577637,-2571.502685547, 0.016521959,,,,,,,,
15, 0.050913237, 0.296497971,-0.035478704,-308.990783691,-188.255065918,-2571.529541016, 0.017172284,,,,,,,,
16, 0.051644657, 0.297373503,-0.035319593,-308.985931396,-188.258163452,-2571.501953125, 0.017980153,,,,,,,,
17, 0.052715056, 0.297368765,-0.034526814,-308.988586426,-188.258361816,-2571.542480469, 0.017721884,,,,,,,,
18, 0.054004867, 0.297582626,-0.033715043,-308.988586426,-188.259185791,-2571.552978516, 0.017361023,,,,,,,,
19, 0.055492252, 0.297545880,-0.032745827,-308.972717285,-188.258895874,-2571.572265625, 0.016974933,,,,,,,,
20, 0.056941681, 0.297405243,-0.031847615,-308.945648193,-188.259140015,-2571.587402344, 0.017658558,,,,,,,,
21, 0.058008078, 0.297583938,-0.031207861,-308.930419922,-188.259674072,-2571.594726563, 0.018635830,,,,,,,,
22, 0.058465496, 0.298221022,-0.030862447,-308.937805176,-188.260940552,-2571.595458984, 0.018500797,,,,,,,,
23, 0.058486868, 0.299143136,-0.030327639,-308.967773438,-188.259063721,-2571.639648438, 0.018943010,,,,,,,,
24, 0.058311619, 0.299831539,-0.030488400,-308.961090088,-188.263565063,-2571.572265625, 0.017244013,,,,,,,,
25, 0.058251806, 0.300693274,-0.029649878,-308.985626221,-188.261840820,-2571.663085938, 0.019341247,,,,,,,,
26, 0.058189984, 0.300761729,-0.029439656,-308.983581543,-188.262298584,-2571.671875000, 0.019829759,,,,,,,,
27, 0.058196217, 0.301404089,-0.029554741,-308.974884033,-188.262756348,-2571.656738281, 0.019553805,,,,,,,,
28, 0.058197811, 0.301910162,-0.029777072,-308.977325439,-188.265441895,-2571.614013672, 0.019123517,,,,,,,,
29, 0.058476001, 0.302420110,-0.029601203,-308.972564697,-188.264968872,-2571.619628906, 0.019140244,,,,,,,,
30, 0.058884025, 0.302914232,-0.029185502,-308.970001221,-188.267684937,-2571.625488281, 0.019078976,,,,,,,,
31, 0.059364893, 0.303056926,-0.028508430,-308.963470459,-188.267959595,-2571.647460938, 0.018979205,,,,,,,,
32, 0.059692379, 0.303246528,-0.028042970,-308.957427979,-188.269042969,-2571.623779297, 0.018975841,,,,,,,,
33, 0.059846893, 0.303346306,-0.027159156,-308.983001709,-188.267425537,-2571.683837891, 0.019616181,,,,,,,,
34, 0.059968349, 0.303833008,-0.026664255,-309.002349854,-188.268051147,-2571.712158203, 0.019100614,,,,,,,,
35, 0.060141928, 0.304388195,-0.026748838,-308.998931885,-188.270584106,-2571.667236328, 0.017677885,,,,,,,,
36, 0.060557142, 0.305192918,-0.026652334,-309.008697510,-188.271011353,-2571.670898438, 0.018614747,,,,,,,,
37, 0.061269052, 0.305684537,-0.026826950,-308.995727539,-188.273147583,-2571.632324219, 0.018090732,,,,,,,,
38, 0.062401995, 0.306729853,-0.026752496,-308.962677002,-188.273895264,-2571.608154297, 0.018403202,,,,,,,,
39, 0.063644290, 0.307238817,-0.026102392,-308.957672119,-188.273025513,-2571.627929688, 0.019211652,,,,,,,,
40, 0.064872399, 0.307853967,-0.025270291,-308.966827393,-188.275588989,-2571.606445313, 0.016441779,,,,,,,,
41, 0.066207156, 0.307939321,-0.024109300,-308.964782715,-188.279174805,-2571.583496094, 0.017048851,,,,,,,,
42, 0.067600846, 0.308063656,-0.022538140,-308.959289551,-188.278182983,-2571.597900391, 0.016979419,,,,,,,,
43, 0.068944342, 0.307563335,-0.021131689,-308.934539795,-188.280044556,-2571.591552734, 0.015212011,,,,,,,,
44, 0.069976538, 0.307334781,-0.019507775,-308.943634033,-188.277542114,-2571.663818359, 0.016821202,,,,,,,,
45, 0.070352927, 0.307107717,-0.019170340,-308.943725586,-188.281234741,-2571.598388672, 0.015054675,,,,,,,,
46, 0.070450887, 0.307094425,-0.018918103,-308.938476563,-188.280670166,-2571.597656250, 0.017205523,,,,,,,,
47, 0.070096269, 0.306728691,-0.018810751,-308.947814941,-188.277420044,-2571.635253906, 0.016913174,,,,,,,,
48, 0.069357611, 0.306988716,-0.019185865,-308.959106445,-188.276763916,-2571.629150391, 0.017102228,,,,,,,,
49, 0.068408288, 0.306903750,-0.020037124,-308.963592529,-188.281036377,-2571.551757813, 0.017388854,,,,,,,,
50, 0.067679927, 0.306691319,-0.020198889,-308.990570068,-188.280807495,-2571.579833984, 0.016653281,,,,,,,,
51, 0.067359813, 0.306845099,-0.020669868,-308.992980957,-188.282150269,-2571.552246094, 0.016441284,,,,,,,,
52, 0.067397259, 0.306581765,-0.021003740,-308.991455078,-188.279861450,-2571.546875000, 0.016399885,,,,,,,,
53, 0.067763694, 0.306360394,-0.021379136,-308.973175049,-188.280212402,-2571.517822266, 0.016312459,,,,,,,,
54, 0.068375230, 0.305809617,-0.021071360,-308.954132080,-188.275695801,-2571.563964844, 0.016488185,,,,,,,,
55, 0.068775110, 0.305455118,-0.020908725,-308.934783936,-188.275329590,-2571.555419922, 0.016883366,,,,,,,,
56, 0.068683103, 0.305235684,-0.020579802,-308.952606201,-188.273666382,-2571.573242188, 0.016205911,,,,,,,,
57, 0.068277359, 0.305077940,-0.020441679,-308.965789795,-188.272842407,-2571.570312500, 0.016139360,,,,,,,,
58, 0.067667834, 0.305090457,-0.020153699,-309.012298584,-188.272811890,-2571.605957031, 0.016658515,,,,,,,,
59, 0.067315020, 0.304874241,-0.020579459,-309.002075195,-188.276901245,-2571.529541016, 0.016023371,,,,,,,,
60, 0.067373812, 0.304685116,-0.020381279,-308.993072510,-188.274719238,-2571.534179688, 0.015617948,,,,,,,,
61, 0.067722157, 0.304569423,-0.019949183,-308.979003906,-188.272872925,-2571.551513672, 0.016348068,,,,,,,,
62, 0.068053678, 0.304152578,-0.019497003,-308.973083496,-188.273162842,-2571.551757813, 0.016697098,,,,,,,,
63, 0.068363428, 0.303909391,-0.018966170,-308.963897705,-188.272827148,-2571.566406250, 0.017649947,,,,,,,,
64, 0.068473466, 0.303749442,-0.018513681,-308.977447510,-188.274414063,-2571.590576172, 0.016715121,,,,,,,,
65, 0.068499394, 0.303849220,-0.018232692,-308.991699219,-188.273422241,-2571.619384766, 0.017142454,,,,,,,,
66, 0.068439104, 0.304058492,-0.018580513,-308.992858887,-188.275283813,-2571.562011719, 0.016864046,,,,,,,,
67, 0.068513937, 0.304143429,-0.018613242,-308.996063232,-188.276275635,-2571.557617188, 0.017474452,,,,,,,,
68, 0.068663143, 0.304369926,-0.018552696,-308.993591309,-188.277236938,-2571.543457031, 0.017386237,,,,,,,,
69, 0.068892755, 0.303998291,-0.018177036,-308.993072510,-188.274261475,-2571.579833984, 0.017267575,,,,,,,,
70, 0.069114432, 0.304047912,-0.018044477,-308.977569580,-188.274673462,-2571.563964844, 0.017635724,,,,,,,,
71, 0.069297716, 0.304073304,-0.017494038,-308.978668213,-188.271697998,-2571.619628906, 0.016954111,,,,,,,,
72, 0.069277383, 0.304358214,-0.017189505,-308.983489990,-188.269744873,-2571.655761719, 0.018216712,,,,,,,,
73, 0.068997093, 0.304799110,-0.017308826,-308.995330811,-188.269927979,-2571.666015625, 0.018581932,,,,,,,,
74, 0.068677559, 0.305412918,-0.017837090,-308.994781494,-188.271606445,-2571.638916016, 0.017916588,,,,,,,,
75, 0.068457454, 0.306233644,-0.018503234,-308.967010498,-188.271408081,-2571.595458984, 0.018116675,,,,,,,,
76, 0.068094097, 0.306800276,-0.019004881,-308.972564697,-188.272476196,-2571.563476563, 0.016876435,,,,,,,,
77, 0.067780107, 0.307400912,-0.019288074,-308.982208252,-188.274078369,-2571.516357422, 0.017110582,,,,,,,,
78, 0.067706667, 0.307299286,-0.018742070,-309.005401611,-188.275482178,-2571.537597656, 0.016120719,,,,,,,,
79, 0.068246596, 0.306757510,-0.017434185,-308.993225098,-188.270919800,-2571.597900391, 0.017589800,,,,,,,,
80, 0.068911895, 0.306319028,-0.015972067,-309.004119873,-188.268493652,-2571.658447266, 0.018928790,,,,,,,,
81, 0.069627546, 0.305499703,-0.015102274,-308.988159180,-188.270370483,-2571.630126953, 0.017389467,,,,,,,,
82, 0.070371233, 0.305262208,-0.013995478,-308.986663818,-188.266250610,-2571.693847656, 0.018196814,,,,,,,,
83, 0.070846744, 0.304601997,-0.013559282,-308.956024170,-188.263778687,-2571.719970703, 0.019004999,,,,,,,,
84, 0.070578374, 0.305071443,-0.014053012,-308.957061768,-188.266983032,-2571.675537109, 0.018874981,,,,,,,,
85, 0.069841087, 0.305676609,-0.014742337,-308.972106934,-188.269363403,-2571.641113281, 0.019321278,,,,,,,,
86, 0.068988293, 0.306186199,-0.015381398,-308.986145020,-188.271286011,-2571.641601563, 0.019378476,,,,,,,,
87, 0.068167336, 0.306164473,-0.016115572,-308.987548828,-188.272262573,-2571.616210938, 0.018230470,,,,,,,,
88, 0.067531884, 0.306731135,-0.016818078,-308.980926514,-188.272872925,-2571.586425781, 0.018033471,,,,,,,,
89, 0.067017831, 0.306925893,-0.017361369,-308.976989746,-188.274536133,-2571.565673828, 0.017231833,,,,,,,,
90, 0.066691354, 0.307053119,-0.017527699,-308.968963623,-188.272262573,-2571.589599609, 0.016922284,,,,,,,,
91, 0.066392034, 0.307356298,-0.017841207,-308.958007813,-188.272018433,-2571.584472656, 0.016949171,,,,,,,,
92, 0.066107750, 0.307698369,-0.018039454,-308.959991455,-188.270614624,-2571.589355469, 0.017333141,,,,,,,,
93, 0.065819860, 0.307869464,-0.018498510,-308.952545166,-188.272415161,-2571.544433594, 0.017320104,,,,,,,,
94, 0.065614842, 0.308289200,-0.018384887,-308.964935303,-188.270782471,-2571.572753906, 0.018308131,,,,,,,,
95, 0.065477297, 0.308362365,-0.018413415,-308.964263916,-188.271942139,-2571.562988281, 0.018126052,,,,,,,,
96, 0.065421544, 0.308189034,-0.018276265,-308.964691162,-188.272094727,-2571.559570313, 0.016645072,,,,,,,,
97, 0.065493636, 0.308691740,-0.018387748,-308.951965332,-188.275268555,-2571.490966797, 0.016756937,,,,,,,,
98, 0.065662019, 0.308449775,-0.017986981,-308.953308105,-188.275726318,-2571.493652344, 0.016476065,,,,,,,,
99, 0.066007964, 0.308782816,-0.017050846,-308.961212158,-188.272003174,-2571.574707031, 0.018640494,,,,,,,,
100, 0.066116989, 0.308699250,-0.016618032,-308.959075928,-188.272796631,-2571.577392578, 0.018430147,,,,,,,,
101, 0.066065118, 0.308824658,-0.016506724,-308.957153320,-188.274002075,-2571.554931641, 0.018648149,,,,,,,,
102, 0.066057742, 0.308911830,-0.015966268,-308.969940186,-188.269104004,-2571.620361328, 0.016680062,,,,,,,,
103, 0.066001326, 0.309266388,-0.015976820,-308.960357666,-188.268768311,-2571.612548828, 0.017473521,,,,,,,,
104, 0.065870628, 0.309499860,-0.016070934,-308.951934814,-188.268630981,-2571.609130859, 0.018390512,,,,,,,,
105, 0.065575793, 0.310009181,-0.016347200,-308.962127686,-188.269836426,-2571.589599609, 0.017359283,,,,,,,,
106, 0.065367401, 0.310412675,-0.016407594,-308.972412109,-188.267868042,-2571.612304688, 0.018246124,,,,,,,,
107, 0.065282613, 0.311083227,-0.016677434,-308.974609375,-188.267929077,-2571.593750000, 0.018854771,,,,,,,,
108, 0.065317646, 0.311321437,-0.017182803,-308.957275391,-188.270278931,-2571.529296875, 0.017596718,,,,,,,,
109, 0.065463364, 0.311822444,-0.017156461,-308.962219238,-188.268127441,-2571.550537109, 0.017848279,,,,,,,,
110, 0.065667138, 0.311800718,-0.017059237,-308.945953369,-188.265686035,-2571.556640625, 0.018567340,,,,,,,,
111, 0.065624118, 0.311880916,-0.016810404,-308.968383789,-188.267074585,-2571.572265625, 0.017743027,,,,,,,,
112, 0.065636292, 0.312235385,-0.016551971,-308.973205566,-188.267532349,-2571.592529297, 0.018905303,,,,,,,,
113, 0.065597184, 0.312489092,-0.016494703,-308.972167969,-188.266326904,-2571.612792969, 0.018195890,,,,,,,,
114, 0.065556005, 0.313442439,-0.016944401,-308.953491211,-188.269042969,-2571.550048828, 0.018771207,,,,,,,,
115, 0.065514997, 0.313885808,-0.016847482,-308.957550049,-188.267227173,-2571.587158203, 0.017955193,,,,,,,,
116, 0.065448761, 0.314192265,-0.016882338,-308.952880859,-188.266555786,-2571.592773438, 0.018163569,,,,,,,,
117, 0.065294072, 0.314817488,-0.016999742,-308.961639404,-188.268859863,-2571.576660156, 0.018412422,,,,,,,,
118, 0.065270752, 0.314909697,-0.016801633,-308.964599609,-188.267730713,-2571.613769531, 0.018344698,,,,,,,,
119, 0.065205961, 0.315588892,-0.017018363,-308.963836670,-188.270248413,-2571.593505859, 0.017801456,,,,,,,,
120, 0.065130040, 0.316114992,-0.017244274,-308.958953857,-188.269897461,-2571.580078125, 0.017695542,,,,,,,,
121, 0.065001026, 0.316661865,-0.017545020,-308.954315186,-188.270446777,-2571.555908203, 0.019030586,,,,,,,,
122, 0.064827792, 0.317406774,-0.017539188,-308.969482422,-188.269195557,-2571.589111328, 0.018317945,,,,,,,,
123, 0.064601623, 0.317645669,-0.017848397,-308.965332031,-188.270736694,-2571.566650391, 0.017939767,,,,,,,,
124, 0.064362258, 0.318253517,-0.018235672,-308.967254639,-188.272811890,-2571.550537109, 0.017030481,,,,,,,,
125, 0.064248979, 0.318887562,-0.018376525,-308.974304199,-188.271530151,-2571.571777344, 0.017916143,,,,,,,,
126, 0.064207070, 0.319355637,-0.018637113,-308.970581055,-188.269714355,-2571.577392578, 0.017888827,,,,,,,,
127, 0.064106882, 0.319813520,-0.019076413,-308.966522217,-188.270980835,-2571.554687500, 0.017347069,,,,,,,,
128, 0.063923821, 0.320184141,-0.019555563,-308.970336914,-188.272567749,-2571.524658203, 0.016699579,,,,,,,,
129, 0.063864909, 0.320583820,-0.019712346,-308.970397949,-188.271209717,-2571.527099609, 0.017887937,,,,,,,,
130, 0.063935637, 0.321111232,-0.019439356,-308.985168457,-188.267593384,-2571.593261719, 0.017134828,,,,,,,,
131, 0.063975833, 0.321525037,-0.019566279,-308.980438232,-188.267974854,-2571.586914063, 0.017036550,,,,,,,,
132, 0.063926905, 0.321891040,-0.019716706,-308.986755371,-188.267684937,-2571.600585938, 0.018245904,,,,,,,,
133, 0.063736781, 0.322254390,-0.020254239,-308.990142822,-188.269470215,-2571.573242188, 0.017411213,,,,,,,,
134, 0.063572943, 0.322229117,-0.020782929,-308.981597900,-188.270782471,-2571.545166016, 0.017126946,,,,,,,,
135, 0.063562177, 0.322796464,-0.020943206,-308.984130859,-188.268722534,-2571.569091797, 0.017240060,,,,,,,,
136, 0.063605465, 0.323221505,-0.020889031,-308.997009277,-188.266983032,-2571.607666016, 0.018682489,,,,,,,,
137, 0.063794531, 0.323602855,-0.021124359,-308.974853516,-188.267150879,-2571.578613281, 0.018863279,,,,,,,,
138, 0.063890934, 0.324052423,-0.021025080,-308.974121094,-188.266693115,-2571.585449219, 0.017520405,,,,,,,,
139, 0.063891351, 0.324531913,-0.020886717,-308.970855713,-188.266967773,-2571.585449219, 0.019368419,,,,,,,,
140, 0.063695177, 0.324828178,-0.020762241,-308.984405518,-188.267883301,-2571.589599609, 0.018288530,,,,,,,,
141, 0.063512184, 0.325165957,-0.020575901,-308.997680664,-188.267562866,-2571.613769531, 0.018002095,,,,,,,,
142, 0.063354768, 0.325874090,-0.021070803,-308.994598389,-188.271774292,-2571.558593750, 0.017897902,,,,,,,,
143, 0.063443616, 0.326528162,-0.021204103,-308.993011475,-188.268768311,-2571.578857422, 0.018267218,,,,,,,,
144, 0.063643664, 0.326888949,-0.021505322,-308.977386475,-188.268753052,-2571.572753906, 0.017952209,,,,,,,,
145, 0.063903406, 0.327432543,-0.021418896,-308.979034424,-188.266708374,-2571.607910156, 0.019304777,,,,,,,,
146, 0.064068437, 0.327868253,-0.021472460,-308.975067139,-188.267227173,-2571.596191406, 0.018570714,,,,,,,,
147, 0.064160325, 0.328457624,-0.021097383,-308.994720459,-188.263961792,-2571.647949219, 0.019855922,,,,,,,,
148, 0.064199686, 0.328755200,-0.021016946,-308.983551025,-188.265640259,-2571.643310547, 0.020765606,,,,,,,,
149, 0.064035505, 0.328949392,-0.021118995,-308.985290527,-188.268463135,-2571.605712891, 0.019280687,,,,,,,,
150, 0.063944712, 0.329677820,-0.020844037,-309.009368896,-188.266006470,-2571.645751953, 0.020215156,,,,,,,,
151, 0.063903354, 0.329578727,-0.021026634,-308.996307373,-188.267074585,-2571.598632813, 0.019362452,,,,,,,,
152, 0.064075962, 0.329668105,-0.020665336,-308.988250732,-188.264923096,-2571.636230469, 0.018920848,,,,,,,,
153, 0.064146802, 0.329708099,-0.020424819,-308.990661621,-188.263565063,-2571.652099609, 0.018644867,,,,,,,,
154, 0.064115278, 0.330334485,-0.020400831,-308.993194580,-188.264633179,-2571.632080078, 0.018936325,,,,,,,,
155, 0.064052001, 0.330546081,-0.020370111,-308.989959717,-188.265380859,-2571.637207031, 0.018248744,,,,,,,,
156, 0.063886866, 0.331275851,-0.020531423,-308.989746094,-188.265808105,-2571.621582031, 0.019510390,,,,,,,,
157, 0.063684821, 0.332093060,-0.020769756,-308.996520996,-188.267013550,-2571.610595703, 0.019146394,,,,,,,,
158, 0.063547075, 0.332593232,-0.021013111,-309.000854492,-188.266433716,-2571.607177734, 0.018484883,,,,,,,,
159, 0.063486882, 0.333316654,-0.021197060,-309.006805420,-188.266296387,-2571.622558594, 0.019751545,,,,,,,,
160, 0.063607618, 0.333608955,-0.021077469,-308.998138428,-188.262786865,-2571.672851563, 0.018716158,,,,,,,,
161, 0.063536592, 0.334051967,-0.021295059,-308.985076904,-188.263809204,-2571.649169922, 0.018618049,,,,,,,,
162, 0.063197441, 0.334317386,-0.021370027,-309.004089355,-188.263946533,-2571.667236328, 0.018197956,,,,,,,,
163, 0.062835485, 0.334570169,-0.021628279,-309.013702393,-188.264205933,-2571.653076172, 0.019432869,,,,,,,,
164, 0.062622510, 0.334702849,-0.021718025,-309.014404297,-188.264480591,-2571.651611328, 0.020653317,,,,,,,,
165, 0.062618583, 0.335065007,-0.021568546,-309.016845703,-188.263519287,-2571.663574219, 0.020297673,,,,,,,,
166, 0.062766112, 0.335155904,-0.021194911,-309.020935059,-188.261856079,-2571.694580078, 0.021049934,,,,,,,,
167, 0.062873550, 0.335153043,-0.021261798,-309.010742188,-188.263916016,-2571.656982422, 0.019532872,,,,,,,,
168, 0.062971801, 0.335170180,-0.021033308,-309.014587402,-188.262359619,-2571.680419922, 0.019425120,,,,,,,,
169, 0.062977687, 0.335293353,-0.021213423,-309.005432129,-188.263900757,-2571.653564453, 0.018823557,,,,,,,,
170, 0.062934324, 0.335548460,-0.021197779,-309.011657715,-188.262817383,-2571.677978516, 0.019490492,,,,,,,,
171, 0.062771104, 0.335862398,-0.021646477,-308.996978760,-188.263000488,-2571.644042969, 0.020170446,,,,,,,,
172, 0.062506288, 0.336516112,-0.021812622,-309.011108398,-188.262802124,-2571.672851563, 0.020385901,,,,,,,,
173, 0.062265061, 0.336624950,-0.022336297,-308.991912842,-188.263732910,-2571.635009766, 0.021623168,,,,,,,,
174, 0.061979678, 0.336406857,-0.022478983,-308.995269775,-188.262039185,-2571.669433594, 0.020365054,,,,,,,,
175, 0.061601643, 0.336527020,-0.023040654,-309.000793457,-188.263778687,-2571.645019531, 0.020668769,,,,,,,,
176, 0.061391074, 0.336758912,-0.023371862,-309.003814697,-188.264617920,-2571.643310547, 0.021727825,,,,,,,,
177, 0.061367437, 0.336589754,-0.023419065,-309.003845215,-188.264816284,-2571.654541016, 0.020389142,,,,,,,,
178, 0.061494380, 0.336266130,-0.023137871,-309.000122070,-188.262771606,-2571.685058594, 0.021925587,,,,,,,,
179, 0.061551243, 0.336223990,-0.023081373,-308.994750977,-188.265502930,-2571.643798828, 0.021110389,,,,,,,,
180, 0.061690021, 0.336157918,-0.022808509,-308.986785889,-188.265808105,-2571.626220703, 0.020554600,,,,,,,,
