Number of frames: 240
Frequency: 100
Units: rad/mm

Frame,Pen1_tip Rz,Pen1_tip Ry,Pen1_tip Rx,Pen1_tip x,Pen1_tip y,Pen1_tip z,Pen1_tip Error,Pen2_tip2 Rz,Pen2_tip2 Ry,Pen2_tip2 Rx,Pen2_tip2 x,Pen2_tip2 y,Pen2_tip2 z,Pen2_tip2 Error
1, 0.023961358,-0.173735008,-0.066344731,-315.038909912,-190.513137817,-2468.056884766, 0.020876005, 0.135741472, 0.015128256, 0.012707335,-165.990524292,-189.696777344,-2483.916503906, 0.004572039,
2, 0.023919033,-0.173571542,-0.067035109,-315.038940430,-190.512542725,-2468.028320313, 0.021244742, 0.135678321, 0.015026314, 0.012720828,-165.999557495,-189.696609497,-2483.932128906, 0.004797374,
3, 0.023989983,-0.173280746,-0.067538880,-315.025817871,-190.512298584,-2467.979980469, 0.021564486, 0.135674536, 0.015348547, 0.012683685,-166.004287720,-189.698242188,-2483.928710938, 0.005095286,
4, 0.023807030,-0.172882065,-0.067115717,-315.022644043,-190.513824463,-2468.018066406, 0.021261157, 0.135702252, 0.015362727, 0.012945714,-166.003204346,-189.695358276,-2483.977783203, 0.004734482,
5, 0.023481807,-0.172476441,-0.066699870,-315.024414063,-190.515090942,-2467.994384766, 0.020378742, 0.135684580, 0.015088210, 0.012747511,-166.005523682,-189.697982788,-2483.952880859, 0.005286019,
6, 0.022831399,-0.172568887,-0.065748602,-315.043243408,-190.517623901,-2467.993896484, 0.020810999, 0.135709777, 0.015096079, 0.012773927,-165.997024536,-189.697799683,-2483.961425781, 0.004748839,
7, 0.022097642,-0.172688544,-0.064187862,-315.053405762,-190.520401001,-2468.042724609, 0.021260820, 0.135680228, 0.014997642, 0.012845669,-165.994781494,-189.697479248,-2483.977539063, 0.004194411,
8, 0.021482812,-0.172785848,-0.063044779,-315.062377930,-190.522628784,-2468.004150391, 0.020449856, 0.135612786, 0.014964958, 0.012755047,-166.001449585,-189.699417114,-2483.965576172, 0.004318375,
9, 0.020963283,-0.172858164,-0.061707467,-315.066528320,-190.523788452,-2468.004882813, 0.019614957, 0.135640234, 0.015000276, 0.012682387,-165.996856689,-189.701400757,-2483.947021484, 0.004923779,
10, 0.020610515,-0.172984928,-0.060333706,-315.057067871,-190.523101807,-2468.030761719, 0.019240763, 0.135713980, 0.015055912, 0.012693356,-165.991363525,-189.700729370,-2483.937744141, 0.004526389,
11, 0.020375051,-0.173236340,-0.059469879,-315.057159424,-190.523391724,-2468.004638672, 0.019011155, 0.135731816, 0.015216509, 0.012780285,-165.994873047,-189.699417114,-2483.940429688, 0.005145715,
12, 0.020177856,-0.173334941,-0.058617298,-315.056915283,-190.523651123,-2468.019287109, 0.019485759, 0.135713890, 0.015024142, 0.012957114,-165.996810913,-189.697540283,-2483.960693359, 0.005079363,
13, 0.020097677,-0.173124984,-0.058125999,-315.047790527,-190.523422241,-2468.029052734, 0.019708479, 0.135704920, 0.014954653, 0.012883792,-165.999160767,-189.699142456,-2483.937255859, 0.004497277,
14, 0.020006401,-0.173169702,-0.058023810,-315.036529541,-190.522827148,-2468.016601563, 0.018851440, 0.135732010, 0.015162429, 0.013015868,-166.001068115,-189.698211670,-2483.950439453, 0.004938939,
15, 0.019757435,-0.173080191,-0.058031019,-315.040130615,-190.522811890,-2468.038574219, 0.018244615, 0.135772437, 0.015224208, 0.012949477,-165.998855591,-189.697952271,-2483.928710938, 0.004179684,
16, 0.019466240,-0.172801077,-0.058318511,-315.039764404,-190.520050049,-2468.051025391, 0.019336404, 0.135798335, 0.015155847, 0.012933264,-165.992721558,-189.697143555,-2483.920166016, 0.003132997,
17, 0.019243101,-0.172388151,-0.059014354,-315.040435791,-190.519165039,-2468.006347656, 0.018449372, 0.135759100, 0.014935439, 0.012982197,-165.992416382,-189.697052002,-2483.924804688, 0.003799418,
18, 0.019030694,-0.172120258,-0.059389930,-315.033416748,-190.519638062,-2467.983886719, 0.018894091, 0.135739744, 0.015111168, 0.012787060,-165.994079590,-189.699478149,-2483.887695313, 0.003252922,
19, 0.018697375,-0.172020346,-0.059167091,-315.033203125,-190.519424438,-2468.027832031, 0.019107671, 0.135735646, 0.015194735, 0.013025410,-165.993560791,-189.696105957,-2483.928466797, 0.003843297,
20, 0.018494453,-0.171771809,-0.059229031,-315.029357910,-190.519485474,-2467.990966797, 0.017881440, 0.135739878, 0.015162433, 0.013159355,-165.994812012,-189.695022583,-2483.948730469, 0.005019305,
21, 0.018160036,-0.171603531,-0.058811817,-315.036895752,-190.520141602,-2467.992431641, 0.018739335, 0.135768145, 0.015114453, 0.013114030,-165.991363525,-189.695663452,-2483.943847656, 0.004474535,
22, 0.017833017,-0.171512559,-0.057881992,-315.031921387,-190.521301270,-2468.049316406, 0.018817745, 0.135759443, 0.015145781, 0.013154214,-165.993164063,-189.695892334,-2483.953369141, 0.004906241,
23, 0.017484274,-0.171971872,-0.057121769,-315.032318115,-190.522613525,-2468.042724609, 0.018769776, 0.135752544, 0.015024290, 0.012896203,-165.992141724,-189.698394775,-2483.912353516, 0.005252467,
24, 0.017171370,-0.171876788,-0.056577463,-315.039031982,-190.525222778,-2468.007324219, 0.018326830, 0.135735214, 0.014967580, 0.012845673,-165.993270874,-189.699020386,-2483.909179688, 0.004407621,
25, 0.016896747,-0.171910182,-0.055722181,-315.039154053,-190.526321411,-2468.033203125, 0.018154634, 0.135739744, 0.014863038, 0.012959040,-165.992401123,-189.697921753,-2483.942626953, 0.005215528,
26, 0.016716704,-0.171898708,-0.055244856,-315.044525146,-190.527877808,-2468.010742188, 0.019272421, 0.135729671, 0.015034556, 0.012891899,-165.994125366,-189.699417114,-2483.936523438, 0.004078893,
27, 0.016698552,-0.171608612,-0.054531198,-315.028961182,-190.526962280,-2468.053466797, 0.018399302, 0.135738686, 0.015120803, 0.012737389,-165.988159180,-189.701171875,-2483.917724609, 0.003901041,
28, 0.016747596,-0.171314284,-0.054391131,-315.009857178,-190.528915405,-2468.016601563, 0.019248547, 0.135696501, 0.014855443, 0.012417105,-165.985717773,-189.704376221,-2483.874267578, 0.004079609,
29, 0.016562628,-0.170650423,-0.054154702,-315.004486084,-190.529693604,-2468.013916016, 0.018226936, 0.135638073, 0.014994134, 0.012544245,-165.993804932,-189.702804565,-2483.905517578, 0.003799725,
30, 0.016172552,-0.170028195,-0.054101706,-315.012603760,-190.530105591,-2467.983154297, 0.018698836, 0.135652646, 0.014988324, 0.012566825,-165.990753174,-189.702545166,-2483.919189453, 0.004657487,
31, 0.015496801,-0.169499233,-0.053599834,-315.039093018,-190.530776978,-2468.014404297, 0.019105075, 0.135651439, 0.014978921, 0.012532586,-165.990051270,-189.702941895,-2483.919189453, 0.004992838,
32, 0.014925602,-0.168911636,-0.053099774,-315.067443848,-190.531387329,-2468.026855469, 0.019707536, 0.135627612, 0.014908346, 0.012560613,-165.993209839,-189.701736450,-2483.928710938, 0.004837121,
33, 0.014706502,-0.168676153,-0.052449878,-315.064086914,-190.532745361,-2468.035888672, 0.021240288, 0.135609314, 0.014884543, 0.012633957,-165.995483398,-189.701034546,-2483.937011719, 0.004213483,
34, 0.014813995,-0.168918788,-0.051954482,-315.047943115,-190.534133911,-2467.999023438, 0.020459171, 0.135642990, 0.014758391, 0.012638369,-165.988418579,-189.699829102,-2483.936035156, 0.004340091,
35, 0.015031279,-0.169289783,-0.051245518,-315.018127441,-190.534225464,-2468.011230469, 0.019288836, 0.135664359, 0.014985251, 0.012652496,-165.991714478,-189.700637817,-2483.929199219, 0.004518325,
36, 0.014985285,-0.169508368,-0.050601862,-315.022979736,-190.533843994,-2468.055419922, 0.019605432, 0.135717899, 0.014809100, 0.012488425,-165.983062744,-189.702438354,-2483.888183594, 0.003621743,
37, 0.014921246,-0.169325367,-0.050468780,-315.018157959,-190.533004761,-2468.063964844, 0.019345172, 0.135716707, 0.014915744, 0.012674426,-165.987823486,-189.699981689,-2483.911865234, 0.004680898,
38, 0.014692477,-0.169184729,-0.050950985,-315.041961670,-190.532760620,-2468.012207031, 0.019447809, 0.135698929, 0.015059604, 0.012818259,-165.993041992,-189.698318481,-2483.922363281, 0.004959882,
39, 0.014533703,-0.168493658,-0.051383618,-315.050262451,-190.531066895,-2468.001464844, 0.019581843, 0.135733634, 0.014937901, 0.012792664,-165.985610962,-189.697296143,-2483.912597656, 0.003319399,
40, 0.014365835,-0.168078244,-0.051588852,-315.057861328,-190.529281616,-2468.012939453, 0.020488098, 0.135724768, 0.014888320, 0.012921494,-165.990219116,-189.695938110,-2483.927978516, 0.004083921,
41, 0.014337204,-0.167519256,-0.051750645,-315.052062988,-190.528350830,-2468.008056641, 0.019415202, 0.135749862, 0.014904262, 0.012872718,-165.988372803,-189.696273804,-2483.909179688, 0.003656399,
42, 0.014295184,-0.167636275,-0.051851816,-315.048980713,-190.529922485,-2467.979492188, 0.019614004, 0.135774717, 0.015113914, 0.012980102,-165.987350464,-189.695190430,-2483.919189453, 0.003801429,
43, 0.014216873,-0.167710766,-0.051489487,-315.042541504,-190.529083252,-2468.024902344, 0.020445943, 0.135762602, 0.015277245, 0.013204664,-165.992584229,-189.694625854,-2483.954589844, 0.003489443,
44, 0.014104824,-0.167655826,-0.051341452,-315.043060303,-190.531112671,-2468.017578125, 0.019250222, 0.135789320, 0.015069998, 0.012941440,-165.985031128,-189.697982788,-2483.908447266, 0.004713438,
45, 0.013917376,-0.167050153,-0.051095266,-315.049865723,-190.532958984,-2468.016601563, 0.019551290, 0.135749608, 0.015071765, 0.013140141,-165.994186401,-189.697097778,-2483.939697266, 0.004511085,
46, 0.013753993,-0.167362079,-0.050885975,-315.052886963,-190.534225464,-2467.998779297, 0.019977104, 0.135760322, 0.014895650, 0.013058640,-165.990539551,-189.698333740,-2483.935058594, 0.003680506,
47, 0.013620242,-0.167438537,-0.050461579,-315.047180176,-190.535369873,-2468.008544922, 0.020016583, 0.135769889, 0.014794611, 0.012875414,-165.983428955,-189.699234009,-2483.908203125, 0.003297380,
48, 0.013561550,-0.167260781,-0.050362796,-315.051116943,-190.536788940,-2467.958496094, 0.019631146, 0.135717675, 0.014819676, 0.012850063,-165.990325928,-189.700408936,-2483.907714844, 0.003449600,
49, 0.013418365,-0.167379394,-0.049536519,-315.047576904,-190.537109375,-2468.020751953, 0.021060612, 0.135690674, 0.014884537, 0.012825310,-165.995025635,-189.702148438,-2483.914062500, 0.003493316,
50, 0.013378483,-0.167251334,-0.049244083,-315.044830322,-190.539367676,-2467.987548828, 0.019105593, 0.135742307, 0.014786742, 0.012855512,-165.983963013,-189.700622559,-2483.933105469, 0.004047969,
51, 0.013285058,-0.167351961,-0.048844587,-315.039001465,-190.540206909,-2467.976318359, 0.019348353, 0.135721341, 0.014908354, 0.012676298,-165.985916138,-189.702362061,-2483.908935547, 0.004031593,
52, 0.013062919,-0.167341739,-0.048385028,-315.040161133,-190.539123535,-2468.001953125, 0.019620501, 0.135703638, 0.015020863, 0.012704995,-165.985427856,-189.701828003,-2483.917968750, 0.003930614,
53, 0.012780273,-0.167376593,-0.048299238,-315.054504395,-190.541183472,-2467.969238281, 0.019532064, 0.135661751, 0.014807233, 0.012664593,-165.987792969,-189.701904297,-2483.922119141, 0.004055702,
54, 0.012524537,-0.167337254,-0.047845609,-315.054382324,-190.540054321,-2468.004394531, 0.020256625, 0.135639802, 0.014895935, 0.012600949,-165.990234375,-189.702514648,-2483.912841797, 0.003495767,
55, 0.012344961,-0.167534932,-0.047802914,-315.067169189,-190.540451050,-2467.985351563, 0.019856157, 0.135679126, 0.014949107, 0.012739848,-165.984725952,-189.699340820,-2483.933349609, 0.003703709,
56, 0.012472499,-0.167491660,-0.047986962,-315.052490234,-190.539337158,-2467.967285156, 0.019064277, 0.135701999, 0.014719270, 0.012579857,-165.982543945,-189.699707031,-2483.914550781, 0.002657165,
57, 0.012593943,-0.167319834,-0.048051674,-315.041564941,-190.536666870,-2467.977783203, 0.019940892, 0.135653421, 0.014702378, 0.012538746,-165.991928101,-189.699340820,-2483.912109375, 0.004156967,
58, 0.012601616,-0.167023286,-0.048163097,-315.044342041,-190.535888672,-2467.985351563, 0.019086707, 0.135664299, 0.014932891, 0.012658884,-165.994247437,-189.696777344,-2483.935302734, 0.004187231,
59, 0.012463286,-0.166515917,-0.048307732,-315.050262451,-190.536209106,-2467.984863281, 0.018343894, 0.135649219, 0.014830429, 0.012502015,-165.996231079,-189.698333740,-2483.907226563, 0.003844092,
60, 0.012253463,-0.166188702,-0.048345093,-315.050933838,-190.535751343,-2467.981689453, 0.019143628, 0.135656685, 0.014755994, 0.012520534,-165.993087769,-189.698348999,-2483.908935547, 0.004401471,
61, 0.012024600,-0.166063979,-0.048460104,-315.051361084,-190.536590576,-2467.958984375, 0.019938430, 0.135701820, 0.014857962, 0.012521729,-165.984695435,-189.698059082,-2483.901367188, 0.003977473,
62, 0.011799382,-0.166309834,-0.048331838,-315.046875000,-190.536300659,-2467.973876953, 0.019093934, 0.135699943, 0.014889413, 0.012495470,-165.983032227,-189.698730469,-2483.887207031, 0.003885956,
63, 0.011631642,-0.166299641,-0.048290879,-315.051940918,-190.535537720,-2467.991943359, 0.019487973, 0.135687634, 0.014994134, 0.012756109,-165.985610962,-189.696517944,-2483.915771484, 0.003726595,
64, 0.011581767,-0.165965483,-0.048382360,-315.051208496,-190.535537720,-2468.000488281, 0.018767256, 0.135680631, 0.014962971, 0.012781278,-165.988220215,-189.696762085,-2483.908203125, 0.004283392,
65, 0.011704569,-0.166192740,-0.048826937,-315.035034180,-190.537963867,-2467.958740234, 0.019400736, 0.135709092, 0.015007588, 0.012811379,-165.988021851,-189.697799683,-2483.904785156, 0.004218659,
66, 0.011666308,-0.166113317,-0.048838418,-315.033996582,-190.536605835,-2467.999511719, 0.019938719, 0.135748610, 0.015203080, 0.012778581,-165.988220215,-189.699478149,-2483.887695313, 0.003768654,
67, 0.011575687,-0.165883556,-0.049013525,-315.036651611,-190.536819458,-2467.996582031, 0.019402301, 0.135755837, 0.014843528, 0.012988041,-165.987060547,-189.697433472,-2483.920654297, 0.003930089,
68, 0.011471841,-0.165560111,-0.049240656,-315.046051025,-190.538925171,-2467.963623047, 0.018452089, 0.135754168, 0.015029198, 0.012948913,-165.992019653,-189.699829102,-2483.912841797, 0.004038441,
69, 0.011404140,-0.165411875,-0.048656650,-315.035614014,-190.536239624,-2468.049560547, 0.018633673, 0.135749713, 0.015166671, 0.012883996,-165.994659424,-189.700790405,-2483.907226563, 0.004121967,
70, 0.011407613,-0.165670872,-0.048319072,-315.024230957,-190.536346436,-2468.063232422, 0.019513220, 0.135741621, 0.014907699, 0.012896458,-165.990371704,-189.699508667,-2483.914062500, 0.003030249,
71, 0.011307956,-0.165906340,-0.048136014,-315.031982422,-190.537811279,-2468.056152344, 0.019184239, 0.135751680, 0.014971552, 0.012890383,-165.987884521,-189.700592041,-2483.915283203, 0.003617730,
72, 0.011191894,-0.166213274,-0.048167743,-315.033538818,-190.538574219,-2468.030761719, 0.019717587, 0.135759205, 0.014968531, 0.012705542,-165.985351563,-189.702392578,-2483.882080078, 0.003324480,
73, 0.011060726,-0.166470513,-0.048353195,-315.033111572,-190.539459229,-2468.004394531, 0.018198622, 0.135733828, 0.014953527, 0.012973377,-165.988891602,-189.699005127,-2483.928955078, 0.003892398,
74, 0.010799167,-0.167203486,-0.048168641,-315.034179688,-190.537231445,-2468.060791016, 0.020676507, 0.135710761, 0.014917472, 0.012983773,-165.992111206,-189.698699951,-2483.930419922, 0.003447845,
75, 0.010596797,-0.167242154,-0.048516896,-315.045043945,-190.537628174,-2468.032470703, 0.020137105, 0.135681257, 0.014921579, 0.012734265,-165.993179321,-189.701828003,-2483.894531250, 0.003867961,
76, 0.010526685,-0.167617843,-0.048897389,-315.047515869,-190.539413452,-2467.991943359, 0.018816322, 0.135676205, 0.015211599, 0.012827236,-165.997085571,-189.700164795,-2483.911132813, 0.003613926,
77, 0.010476734,-0.167595327,-0.048716597,-315.044128418,-190.538009644,-2468.020996094, 0.019401275, 0.135683373, 0.014998186, 0.012410747,-165.990493774,-189.703872681,-2483.854003906, 0.003719987,
78, 0.010581591,-0.167727202,-0.048615262,-315.026062012,-190.538009644,-2468.010986328, 0.019896347, 0.135646299, 0.014732417, 0.012593742,-165.989944458,-189.700241089,-2483.905273438, 0.004152372,
79, 0.010603770,-0.167676359,-0.048527882,-315.014770508,-190.538208008,-2467.985107422, 0.019341744, 0.135646269, 0.014848735, 0.012732838,-165.991195679,-189.697052002,-2483.944091797, 0.004788865,
80, 0.010215319,-0.167662933,-0.048020348,-315.030487061,-190.538223267,-2468.029785156, 0.020522801, 0.135652900, 0.015005962, 0.012750664,-165.988876343,-189.696121216,-2483.953125000, 0.003450291,
81, 0.009805273,-0.167732507,-0.047731046,-315.044891357,-190.538955688,-2468.054199219, 0.019247452, 0.135644421, 0.014903727, 0.012387424,-165.986907959,-189.701309204,-2483.889648438, 0.004252048,
82, 0.009547202,-0.167771101,-0.048044607,-315.056365967,-190.540481567,-2467.999511719, 0.019314826, 0.135625750, 0.015048695, 0.012362101,-165.993774414,-189.701644897,-2483.882080078, 0.003874024,
83, 0.009440479,-0.167866066,-0.048137143,-315.059204102,-190.540328979,-2468.020996094, 0.018716160, 0.135659173, 0.014767926, 0.012364671,-165.985870361,-189.700927734,-2483.878906250, 0.003990810,
84, 0.009492433,-0.168031424,-0.048344906,-315.053009033,-190.538681030,-2468.033691406, 0.019340517, 0.135650828, 0.014813518, 0.012504957,-165.991470337,-189.699615479,-2483.895263672, 0.003999002,
85, 0.009545173,-0.168155402,-0.048690896,-315.047515869,-190.537872314,-2468.020263672, 0.019514857, 0.135714367, 0.015092097, 0.012564984,-165.984146118,-189.698760986,-2483.900146484, 0.002555273,
86, 0.009552161,-0.167772770,-0.049029808,-315.049560547,-190.538284302,-2467.989501953, 0.019003987, 0.135729253, 0.015010851, 0.012453713,-165.980285645,-189.699890137,-2483.878173828, 0.003326763,
87, 0.009471392,-0.167739213,-0.048895471,-315.045196533,-190.537231445,-2468.007080078, 0.019240880, 0.135672152, 0.014874102, 0.012749640,-165.990142822,-189.696151733,-2483.928222656, 0.003906470,
88, 0.009378804,-0.167773336,-0.048686031,-315.040924072,-190.537796021,-2468.027587891, 0.020930152, 0.135689840, 0.014900123, 0.012713967,-165.986679077,-189.697479248,-2483.920410156, 0.003822851,
89, 0.009278380,-0.167812675,-0.048370481,-315.039855957,-190.537521362,-2468.050537109, 0.020476583, 0.135696724, 0.014785152, 0.012732771,-165.985656738,-189.698928833,-2483.917968750, 0.004488712,
90, 0.009155941,-0.167557091,-0.048292898,-315.039611816,-190.540176392,-2468.021728516, 0.020038057, 0.135701835, 0.014842943, 0.012933547,-165.986724854,-189.698318481,-2483.942626953, 0.004108354,
91, 0.008963726,-0.167533100,-0.048368648,-315.044036865,-190.542770386,-2467.964843750, 0.019864764, 0.135726750, 0.014849146, 0.013053839,-165.986846924,-189.698272705,-2483.951171875, 0.003589268,
92, 0.008614400,-0.167673081,-0.047837161,-315.049865723,-190.542144775,-2467.997070313, 0.019241326, 0.135698125, 0.014750144, 0.012953976,-165.992874146,-189.701004028,-2483.925048828, 0.004103501,
93, 0.008250118,-0.167601660,-0.047202121,-315.063751221,-190.542098999,-2468.007812500, 0.019446736, 0.135741293, 0.014779527, 0.012946190,-165.985702515,-189.700836182,-2483.916259766, 0.004139331,
94, 0.008068720,-0.167773813,-0.046265569,-315.053497314,-190.542526245,-2468.049316406, 0.019962192, 0.135757074, 0.014867773, 0.013053838,-165.984542847,-189.699569702,-2483.930175781, 0.003739631,
95, 0.008085823,-0.168193519,-0.045945685,-315.036193848,-190.545379639,-2467.996337891, 0.018170405, 0.135796860, 0.014825177, 0.012908465,-165.975708008,-189.701721191,-2483.907714844, 0.003376523,
96, 0.007929928,-0.168165952,-0.045248449,-315.041320801,-190.545303345,-2468.048828125, 0.018928668, 0.135758087, 0.014976326, 0.012676707,-165.982757568,-189.704421997,-2483.869140625, 0.003161991,
97, 0.007926892,-0.167501554,-0.045300916,-315.036956787,-190.545089722,-2468.030273438, 0.018709078, 0.135727733, 0.014798206, 0.012761873,-165.985168457,-189.702606201,-2483.890625000, 0.003244847,
98, 0.007919744,-0.167141035,-0.045710322,-315.036010742,-190.543563843,-2468.016113281, 0.019183492, 0.135722652, 0.014963433, 0.012836921,-165.986633301,-189.701400757,-2483.906005859, 0.003486032,
