Number of frames: 254
Frequency: 100
Units: rad/mm

Frame,Pen1_tip Rz,Pen1_tip Ry,Pen1_tip Rx,Pen1_tip x,Pen1_tip y,Pen1_tip z,Pen1_tip Error,Pen2_tip2 Rz,Pen2_tip2 Ry,Pen2_tip2 Rx,Pen2_tip2 x,Pen2_tip2 y,Pen2_tip2 z,Pen2_tip2 Error
1, 0.058935583,-0.046977147, 0.018530568,-311.657043457,-190.995056152,-2382.491210938, 0.018067034, 0.145434424, 0.104381897, 0.009552944,-157.211425781,-189.596435547,-2476.483886719, 0.005221459,
2, 0.058173738,-0.046894234, 0.017962987,-311.646087646,-190.999511719,-2382.433105469, 0.019738773, 0.145367980, 0.104307324, 0.009428830,-157.215911865,-189.597503662,-2476.468261719, 0.005319263,
3, 0.057567112,-0.047026441, 0.017748993,-311.621856689,-191.000274658,-2382.428955078, 0.019827818, 0.145366326, 0.104207173, 0.009505666,-157.215881348,-189.596542358,-2476.487792969, 0.005622630,
4, 0.056853276,-0.046906050, 0.017747957,-311.627044678,-191.000885010,-2382.430419922, 0.019692047, 0.145395890, 0.104254611, 0.009590333,-157.218643188,-189.595901489,-2476.505371094, 0.005999051,
5, 0.056029651,-0.047232550, 0.017885759,-311.642333984,-191.003387451,-2382.436035156, 0.019697011, 0.145402297, 0.104282200, 0.009684719,-157.222305298,-189.595413208,-2476.525146484, 0.005942098,
6, 0.055368003,-0.047192700, 0.017710598,-311.644470215,-191.011505127,-2382.373046875, 0.019157246, 0.145409077, 0.104106165, 0.009699217,-157.220306396,-189.594863892,-2476.530029297, 0.007332239,
7, 0.054725442,-0.046918754, 0.018044688,-311.659759521,-191.010299683,-2382.405761719, 0.018848857, 0.145384669, 0.104221866, 0.009597584,-157.224456787,-189.597839355,-2476.508056641, 0.005760710,
8, 0.054285258,-0.046841316, 0.018380094,-311.651947021,-191.009826660,-2382.420166016, 0.018981578, 0.145381927, 0.104402050, 0.009754706,-157.229507446,-189.596618652,-2476.534179688, 0.005271024,
9, 0.053984914,-0.046607200, 0.018660247,-311.642333984,-191.010421753,-2382.422607422, 0.020366317, 0.145402476, 0.104202390, 0.009551381,-157.218673706,-189.597198486,-2476.505126953, 0.005547481,
10, 0.053716816,-0.046221595, 0.019243170,-311.632385254,-191.005386353,-2382.477783203, 0.019551929, 0.145398766, 0.104006499, 0.009437692,-157.213043213,-189.598266602,-2476.484375000, 0.005945932,
11, 0.053460963,-0.045677710, 0.019510973,-311.630065918,-191.005050659,-2382.490966797, 0.019062895, 0.145396933, 0.104192808, 0.009567177,-157.215087891,-189.597930908,-2476.495605469, 0.006016722,
12, 0.053133957,-0.045547359, 0.019619964,-311.633758545,-191.005554199,-2382.482421875, 0.019577229, 0.145396233, 0.104197748, 0.009711585,-157.217697144,-189.596969604,-2476.508544922, 0.005346944,
13, 0.052809175,-0.045281578, 0.019730145,-311.644622803,-191.007385254,-2382.482177734, 0.019479936, 0.145383775, 0.104351945, 0.009898096,-157.230941772,-189.596908569,-2476.519531250, 0.005898563,
14, 0.052568875,-0.045150887, 0.019731402,-311.652465820,-191.009353638,-2382.474121094, 0.019603407, 0.145493373, 0.104377635, 0.009735965,-157.216323853,-189.598602295,-2476.476806641, 0.005852315,
15, 0.052444190,-0.045026451, 0.019703927,-311.660400391,-191.009963989,-2382.471679688, 0.018907666, 0.145535395, 0.104415707, 0.009664396,-157.212722778,-189.598770142,-2476.454833984, 0.005868926,
16, 0.052565958,-0.044937253, 0.019578559,-311.643157959,-191.009277344,-2382.466308594, 0.019762363, 0.145507008, 0.104282662, 0.009761469,-157.216262817,-189.599395752,-2476.472656250, 0.005820526,
17, 0.052724119,-0.044219933, 0.019374378,-311.646789551,-191.012207031,-2382.441406250, 0.019631058, 0.145463675, 0.104211822, 0.010005972,-157.225906372,-189.597427368,-2476.519775391, 0.006392605,
18, 0.052978136,-0.043806948, 0.019273518,-311.632232666,-191.012939453,-2382.420898438, 0.020242872, 0.145466834, 0.104004316, 0.009870376,-157.218673706,-189.597579956,-2476.498291016, 0.005614253,
19, 0.053170100,-0.043594420, 0.019303974,-311.620422363,-191.014923096,-2382.391845703, 0.019257708, 0.145462915, 0.104136162, 0.009817085,-157.219848633,-189.598251343,-2476.488037109, 0.005150835,
20, 0.053169746,-0.043518517, 0.020071154,-311.620452881,-191.008575439,-2382.458007813, 0.019885786, 0.145558089, 0.104334541, 0.009903085,-157.210128784,-189.597000122,-2476.500244141, 0.004939143,
21, 0.053065959,-0.043541286, 0.020516545,-311.612030029,-191.010803223,-2382.444824219, 0.020350067, 0.145521849, 0.104158200, 0.009776187,-157.209930420,-189.598266602,-2476.471679688, 0.005280967,
22, 0.052751895,-0.043217942, 0.021243690,-311.627410889,-191.007141113,-2382.495361328, 0.019682864, 0.145461127, 0.104275018, 0.009768519,-157.218826294,-189.598632813,-2476.464599609, 0.005626261,
23, 0.052364059,-0.043185145, 0.021782799,-311.634338379,-191.003494263,-2382.552001953, 0.019165343, 0.145451516, 0.104385920, 0.009874177,-157.224121094,-189.598022461,-2476.485595703, 0.004897381,
24, 0.051980469,-0.043045346, 0.021439508,-311.646057129,-191.011215210,-2382.495849609, 0.018618969, 0.145489112, 0.104410060, 0.009871529,-157.220687866,-189.598358154,-2476.486816406, 0.006064216,
25, 0.051762443,-0.042198248, 0.021348309,-311.648956299,-191.007049561,-2382.528320313, 0.018499199, 0.145498514, 0.104501225, 0.009736265,-157.220535278,-189.598098755,-2476.473388672, 0.005997002,
26, 0.051641624,-0.041443784, 0.020441147,-311.661987305,-191.015319824,-2382.455322266, 0.019076226, 0.145448163, 0.104361661, 0.009803378,-157.224838257,-189.597457886,-2476.510253906, 0.005928006,
27, 0.051790740,-0.041070238, 0.019895637,-311.654296875,-191.014663696,-2382.442138672, 0.017984211, 0.145438612, 0.104207627, 0.009742100,-157.216354370,-189.596771240,-2476.510498047, 0.006465132,
28, 0.052102190,-0.040946145, 0.019660966,-311.633972168,-191.011184692,-2382.461425781, 0.018001277, 0.145393074, 0.104274809, 0.009614598,-157.214675903,-189.596755981,-2476.496337891, 0.005374092,
29, 0.052405294,-0.040611032, 0.019455003,-311.627502441,-191.010131836,-2382.468505859, 0.018502483, 0.145367205, 0.103950560, 0.009371572,-157.212173462,-189.598968506,-2476.464355469, 0.006276477,
30, 0.052580737,-0.040465232, 0.019257829,-311.620666504,-191.009719849,-2382.458496094, 0.018190561, 0.145403862, 0.104123823, 0.009475403,-157.217697144,-189.598831177,-2476.479492188, 0.007132320,
31, 0.052490786,-0.040530629, 0.019126361,-311.621246338,-191.012344360,-2382.452148438, 0.018362571, 0.145455748, 0.104445651, 0.009533400,-157.216506958,-189.599060059,-2476.477783203, 0.006217339,
32, 0.052171204,-0.040541634, 0.019284468,-311.631103516,-191.010940552,-2382.472900391, 0.018674020, 0.145434186, 0.104500681, 0.009736093,-157.225692749,-189.597305298,-2476.510742188, 0.005796734,
33, 0.051782552,-0.040348221, 0.019235937,-311.638549805,-191.014495850,-2382.445800781, 0.018618027, 0.145375952, 0.104276523, 0.009657869,-157.228500366,-189.598327637,-2476.501953125, 0.006440477,
34, 0.051403090,-0.040598821, 0.019472215,-311.636230469,-191.015075684,-2382.443359375, 0.018074993, 0.145398900, 0.104202390, 0.009535889,-157.219528198,-189.599197388,-2476.489746094, 0.005769976,
35, 0.051101133,-0.040490612, 0.019636752,-311.631286621,-191.016632080,-2382.443603516, 0.019523028, 0.145406887, 0.104077362, 0.009461617,-157.214935303,-189.598754883,-2476.478027344, 0.006138964,
36, 0.050766651,-0.040406201, 0.019756123,-311.640441895,-191.016677856,-2382.460937500, 0.018863685, 0.145432100, 0.104217142, 0.009513714,-157.210922241,-189.598266602,-2476.484619141, 0.006372134,
37, 0.050615873,-0.040529843, 0.019784002,-311.628295898,-191.013427734,-2382.484375000, 0.019230865, 0.145401567, 0.104402989, 0.009687286,-157.219940186,-189.597595215,-2476.510009766, 0.004825769,
38, 0.050487872,-0.040287066, 0.019414099,-311.626892090,-191.014556885,-2382.463867188, 0.018451598, 0.145381078, 0.104379244, 0.009394103,-157.214675903,-189.601150513,-2476.450683594, 0.005585366,
39, 0.050315656,-0.039885368, 0.019075723,-311.641204834,-191.015426636,-2382.457031250, 0.018755661, 0.145402610, 0.104239732, 0.009480949,-157.211669922,-189.600646973,-2476.451660156, 0.006504591,
40, 0.050204493,-0.039957840, 0.018923512,-311.641418457,-191.015197754,-2382.460693359, 0.019210847, 0.145425677, 0.104243606, 0.009636327,-157.218215942,-189.599365234,-2476.464843750, 0.007133279,
41, 0.050088923,-0.039956283, 0.018845284,-311.646362305,-191.015838623,-2382.450927734, 0.019206354, 0.145464212, 0.104052901, 0.009906659,-157.223968506,-189.596343994,-2476.506103516, 0.006579967,
42, 0.050038841,-0.039921962, 0.019000569,-311.646453857,-191.013610840,-2382.468994141, 0.018838059, 0.145509109, 0.104290225, 0.009855324,-157.221862793,-189.597640991,-2476.489257813, 0.006115261,
43, 0.050015546,-0.040227741, 0.019247402,-311.649719238,-191.012054443,-2382.507812500, 0.018372539, 0.145511106, 0.104208313, 0.009867127,-157.218658447,-189.597061157,-2476.490234375, 0.006121079,
44, 0.050145961,-0.040209442, 0.019206092,-311.642486572,-191.013137817,-2382.505859375, 0.019009102, 0.145468354, 0.104239799, 0.009964957,-157.223693848,-189.596755981,-2476.506591797, 0.006737006,
45, 0.050316494,-0.039874334, 0.018865786,-311.635681152,-191.013351440,-2382.482421875, 0.018499702, 0.145458728, 0.104471385, 0.009766207,-157.220932007,-189.598373413,-2476.468750000, 0.005862508,
46, 0.050352607,-0.039871715, 0.018616498,-311.627655029,-191.009613037,-2382.490722656, 0.018120419, 0.145487458, 0.104261875, 0.009908626,-157.215972900,-189.597137451,-2476.497802734, 0.006165482,
47, 0.050215516,-0.039946757, 0.018200306,-311.624389648,-191.013427734,-2382.464355469, 0.018967586, 0.145503476, 0.104177445, 0.009890448,-157.212570190,-189.596969604,-2476.494873047, 0.006436376,
48, 0.049924143,-0.039960191, 0.017908571,-311.631500244,-191.016204834,-2382.454101563, 0.019453971, 0.145489484, 0.104333185, 0.009920117,-157.217437744,-189.597717285,-2476.493164063, 0.006454531,
49, 0.049485728,-0.040393583, 0.017921016,-311.652832031,-191.014755249,-2382.492919922, 0.018201668, 0.145459071, 0.104309626, 0.009790707,-157.218566895,-189.598999023,-2476.469238281, 0.005556653,
50, 0.049262539,-0.040708367, 0.017549103,-311.656066895,-191.018020630,-2382.481689453, 0.017777387, 0.145476833, 0.104281053, 0.009887597,-157.219345093,-189.598220825,-2476.492675781, 0.006277383,
51, 0.049354754,-0.040075995, 0.016814586,-311.639892578,-191.020385742,-2382.439941406, 0.018515876, 0.145498961, 0.104201391, 0.010024008,-157.219253540,-189.596740723,-2476.523681641, 0.006254314,
52, 0.049455754,-0.039442431, 0.016124956,-311.637847900,-191.020614624,-2382.411865234, 0.018314425, 0.145497113, 0.104248911, 0.009690066,-157.212966919,-189.598968506,-2476.474609375, 0.005632098,
53, 0.049518067,-0.039073721, 0.015751056,-311.637390137,-191.019546509,-2382.416259766, 0.017387394, 0.145471245, 0.104203783, 0.009668381,-157.214691162,-189.598236084,-2476.478027344, 0.005750686,
54, 0.049555007,-0.039092943, 0.015541800,-311.627319336,-191.019393921,-2382.412597656, 0.017359953, 0.145433739, 0.103934504, 0.009565547,-157.212173462,-189.598815918,-2476.475830078, 0.006499844,
55, 0.049475238,-0.039128937, 0.015536929,-311.626556396,-191.020080566,-2382.424804688, 0.017532783, 0.145445362, 0.104188845, 0.009592951,-157.211807251,-189.598388672,-2476.484375000, 0.006142749,
56, 0.049226861,-0.040021416, 0.015542988,-311.626708984,-191.019866943,-2382.438720703, 0.018396810, 0.145439804, 0.104152292, 0.009672283,-157.213012695,-189.597290039,-2476.506103516, 0.005765249,
57, 0.049033370,-0.039628144, 0.015381640,-311.645599365,-191.020004272,-2382.456054688, 0.017402608, 0.145411685, 0.104008690, 0.009513095,-157.212371826,-189.599014282,-2476.480957031, 0.006471347,
58, 0.049109932,-0.038846873, 0.014855616,-311.635070801,-191.019363403,-2382.445800781, 0.017305324, 0.145410806, 0.104144342, 0.009323578,-157.211776733,-189.601058960,-2476.447509766, 0.005509067,
59, 0.049073651,-0.038937323, 0.014434328,-311.627075195,-191.016220093,-2382.460205078, 0.017731732, 0.145420507, 0.104040980, 0.009611051,-157.213058472,-189.596664429,-2476.500000000, 0.004531170,
60, 0.049030866,-0.039011396, 0.013959317,-311.616180420,-191.013793945,-2382.457519531, 0.016674418, 0.145400867, 0.104218446, 0.009504636,-157.217712402,-189.597259521,-2476.483154297, 0.005637246,
61, 0.048802447,-0.039028239, 0.013434869,-311.630645752,-191.017929077,-2382.436279297, 0.017252931, 0.145393640, 0.104253702, 0.009521637,-157.218994141,-189.597839355,-2476.483398438, 0.005956581,
62, 0.048597820,-0.039096512, 0.013350707,-311.645660400,-191.016784668,-2382.479248047, 0.017356135, 0.145378441, 0.104405940, 0.009407480,-157.219833374,-189.600067139,-2476.460693359, 0.005530128,
63, 0.048636425,-0.038566392, 0.012814904,-311.651519775,-191.018142700,-2382.473632813, 0.017687725, 0.145428658, 0.104218006, 0.009676207,-157.216476440,-189.597595215,-2476.506591797, 0.005240120,
64, 0.048850037,-0.038047042, 0.012145001,-311.652343750,-191.016448975,-2382.464843750, 0.016964365, 0.145448253, 0.104094565, 0.009833221,-157.217224121,-189.596481323,-2476.528076172, 0.005669020,
65, 0.049267497,-0.037982784, 0.011128592,-311.637725830,-191.021011353,-2382.374023438, 0.018278657, 0.145436600, 0.104293227, 0.009795489,-157.222808838,-189.597274780,-2476.510742188, 0.006481926,
66, 0.049596813,-0.038201600, 0.011127638,-311.629241943,-191.018981934,-2382.386718750, 0.017951962, 0.145449936, 0.104188196, 0.009759654,-157.218750000,-189.597381592,-2476.502441406, 0.005955987,
67, 0.049832981,-0.038322203, 0.011684720,-311.623474121,-191.016845703,-2382.415283203, 0.018021693, 0.145454809, 0.104247853, 0.009781197,-157.219528198,-189.597747803,-2476.501220703, 0.005522027,
68, 0.049846843,-0.038867224, 0.012530319,-311.626556396,-191.015304565,-2382.443847656, 0.018131638, 0.145466954, 0.104104854, 0.009918298,-157.219879150,-189.596328735,-2476.520263672, 0.005520848,
69, 0.049705818,-0.039046347, 0.013330117,-311.641876221,-191.016540527,-2382.465332031, 0.017701752, 0.145486951, 0.104094721, 0.009745087,-157.213943481,-189.598587036,-2476.483398438, 0.005535084,
70, 0.049597628,-0.039044227, 0.013725851,-311.647369385,-191.019805908,-2382.446533203, 0.017357321, 0.145482764, 0.104134209, 0.009796059,-157.218048096,-189.598129272,-2476.480712891, 0.006378008,
71, 0.049436301,-0.039696056, 0.014123424,-311.645507813,-191.016891479,-2382.463867188, 0.017175017, 0.145498335, 0.104102194, 0.009928297,-157.220367432,-189.597000122,-2476.500000000, 0.005344315,
72, 0.049310032,-0.040125120, 0.014055290,-311.637542725,-191.021667480,-2382.416259766, 0.017745987, 0.145486012, 0.104176462, 0.009897958,-157.223312378,-189.597732544,-2476.490966797, 0.005023958,
73, 0.049069360,-0.040720545, 0.014238752,-311.635498047,-191.021957397,-2382.418945313, 0.017897695, 0.145474210, 0.104369916, 0.010146092,-157.228942871,-189.596023560,-2476.531005859, 0.004847942,
74, 0.048792418,-0.041092530, 0.014220290,-311.636291504,-191.024291992,-2382.401123047, 0.017699096, 0.145503521, 0.104566179, 0.009949432,-157.219177246,-189.597900391,-2476.493896484, 0.005935816,
75, 0.048495512,-0.041187804, 0.014185657,-311.650115967,-191.025146484,-2382.411132813, 0.017933015, 0.145497993, 0.104295321, 0.009786875,-157.213348389,-189.598388672,-2476.471923828, 0.005177999,
76, 0.048450112,-0.041052181, 0.013946259,-311.650939941,-191.025253296,-2382.415039063, 0.017539168, 0.145506606, 0.104280762, 0.009784829,-157.211898804,-189.598709106,-2476.477539063, 0.005223819,
77, 0.048678253,-0.040715311, 0.013536633,-311.633331299,-191.023071289,-2382.410400391, 0.017738275, 0.145485669, 0.104485780, 0.009787913,-157.217971802,-189.599700928,-2476.481689453, 0.005498554,
78, 0.048800260,-0.040699732, 0.013389136,-311.629516602,-191.018920898,-2382.434082031, 0.017332800, 0.145476803, 0.104285628, 0.009693897,-157.215164185,-189.598892212,-2476.477050781, 0.005759127,
79, 0.048815515,-0.040570199, 0.013327580,-311.628601074,-191.018417358,-2382.438476563, 0.017716957, 0.145453990, 0.104268998, 0.009843845,-157.219940186,-189.597045898,-2476.509765625, 0.005010849,
80, 0.048673682,-0.040571902, 0.013330190,-311.638549805,-191.020751953,-2382.427246094, 0.017396430, 0.145427093, 0.104192652, 0.009948228,-157.228546143,-189.596649170,-2476.531494141, 0.005318608,
81, 0.048519798,-0.040416315, 0.013473765,-311.654022217,-191.022079468,-2382.424804688, 0.017083801, 0.145448714, 0.104149304, 0.009737904,-157.224731445,-189.597976685,-2476.500244141, 0.006022250,
82, 0.048545685,-0.040340655, 0.013586298,-311.652465820,-191.024490356,-2382.421386719, 0.017720025, 0.145462409, 0.104145907, 0.009719323,-157.221694946,-189.597869873,-2476.499023438, 0.005347299,
83, 0.048719887,-0.039818697, 0.013658607,-311.648590088,-191.023223877,-2382.417480469, 0.016603360, 0.145474926, 0.104215935, 0.009714824,-157.217391968,-189.597946167,-2476.500976563, 0.006210487,
84, 0.048965361,-0.039439246, 0.013443060,-311.635284424,-191.026885986,-2382.356689453, 0.018096972, 0.145469174, 0.104261115, 0.009619140,-157.212585449,-189.597732544,-2476.490966797, 0.006127718,
85, 0.049066778,-0.039249931, 0.014043748,-311.630554199,-191.021179199,-2382.414062500, 0.016690401, 0.145401061, 0.104296140, 0.009645255,-157.218460083,-189.596603394,-2476.506591797, 0.005383115,
86, 0.049021147,-0.039544132, 0.014572828,-311.624359131,-191.022048950,-2382.407958984, 0.017849583, 0.145382777, 0.104172796, 0.009533321,-157.217529297,-189.596740723,-2476.489746094, 0.005115551,
87, 0.048733197,-0.039599989, 0.015404865,-311.645935059,-191.021011353,-2382.452636719, 0.017660234, 0.145405293, 0.104182914, 0.009695578,-157.217056274,-189.595245361,-2476.516601563, 0.004947329,
88, 0.048614576,-0.039524753, 0.015744990,-311.650329590,-191.023254395,-2382.440917969, 0.017204707, 0.145407349, 0.104217827, 0.009450046,-157.216522217,-189.598770142,-2476.467773438, 0.005795481,
89, 0.048604365,-0.039402213, 0.016038906,-311.649200439,-191.021133423,-2382.457031250, 0.017639240, 0.145415887, 0.104366481, 0.009548726,-157.222473145,-189.598663330,-2476.479003906, 0.004478735,
90, 0.048726078,-0.039581068, 0.015591329,-311.638061523,-191.028396606,-2382.379394531, 0.017830566, 0.145426661, 0.104121439, 0.009760262,-157.224639893,-189.595901489,-2476.514160156, 0.004598059,
91, 0.048817314,-0.039132826, 0.015566971,-311.646484375,-191.027236938,-2382.396972656, 0.017214311, 0.145439610, 0.104053363, 0.009566722,-157.219635010,-189.597900391,-2476.474609375, 0.005607863,
92, 0.048881564,-0.039073370, 0.015598338,-311.641235352,-191.023468018,-2382.420898438, 0.017224988, 0.145457551, 0.104032345, 0.009803103,-157.219497681,-189.596801758,-2476.509765625, 0.005788711,
93, 0.048883345,-0.039256301, 0.015439376,-311.640625000,-191.024932861,-2382.406982422, 0.017366005, 0.145455688, 0.104259536, 0.009762444,-157.221694946,-189.598846436,-2476.490722656, 0.005344898,
94, 0.048854068,-0.039136268, 0.015365346,-311.641296387,-191.024978638,-2382.419677734, 0.017543888, 0.145466894, 0.104453839, 0.009691847,-157.219467163,-189.599395752,-2476.469482422, 0.005465820,
95, 0.048845228,-0.038877115, 0.015146734,-311.642242432,-191.026138306,-2382.413330078, 0.017361686, 0.145446345, 0.104298815, 0.009680121,-157.216629028,-189.599731445,-2476.469238281, 0.005996604,
96, 0.048904095,-0.038803961, 0.014804643,-311.639434814,-191.027145386,-2382.389404297, 0.016834775, 0.145461425, 0.104214139, 0.009866512,-157.217742920,-189.598724365,-2476.496093750, 0.006005893,
97, 0.049029026,-0.038983773, 0.014485145,-311.621490479,-191.029891968,-2382.345214844, 0.016926071, 0.145466626, 0.104404211, 0.009751167,-157.217346191,-189.600570679,-2476.467285156, 0.006086183,
98, 0.048954979,-0.039237238, 0.014867167,-311.623718262,-191.025970459,-2382.386718750, 0.017220698, 0.145492345, 0.104486391, 0.009726114,-157.217285156,-189.601028442,-2476.455322266, 0.005591034,
