Number of frames: 280
Frequency: 100
Units: rad/mm

Frame,Pen1_tip Rz,Pen1_tip Ry,Pen1_tip Rx,Pen1_tip x,Pen1_tip y,Pen1_tip z,Pen1_tip Error,Pen2_tip2 Rz,Pen2_tip2 Ry,Pen2_tip2 Rx,Pen2_tip2 x,Pen2_tip2 y,Pen2_tip2 z,Pen2_tip2 Error
1, 0.079744726, 0.142314583, 0.024970286,-311.212463379,-190.950210571,-2382.427734375, 0.015605915, 0.185245693, 0.693706214, 0.098418042,-164.587753296,-189.717849731,-2467.212402344, 0.023081744,
2, 0.079588577, 0.142118052, 0.024894265,-311.199066162,-190.953079224,-2382.399414063, 0.016521234, 0.185110629, 0.693752706, 0.098048724,-164.568527222,-189.721343994,-2467.164794922, 0.025147211,
3, 0.079425812, 0.141765743, 0.025226448,-311.191955566,-190.951751709,-2382.423583984, 0.016299356, 0.185184255, 0.693738878, 0.098295815,-164.578491211,-189.719924927,-2467.191406250, 0.023075372,
4, 0.079135060, 0.141016841, 0.025597095,-311.192413330,-190.949508667,-2382.449218750, 0.016853200, 0.185317531, 0.693876565, 0.098643631,-164.593414307,-189.717559814,-2467.225830078, 0.020455929,
5, 0.078855306, 0.141151384, 0.025692746,-311.193634033,-190.949661255,-2382.448242188, 0.017516308, 0.185318440, 0.693800867, 0.098663613,-164.596038818,-189.717864990,-2467.226074219, 0.021668781,
6, 0.078514501, 0.140622124, 0.025579371,-311.186645508,-190.952026367,-2382.443115234, 0.017864883, 0.185395330, 0.693819404, 0.098760158,-164.597290039,-189.718551636,-2467.229003906, 0.020756042,
7, 0.078198768, 0.140954331, 0.025562566,-311.204589844,-190.949722290,-2382.483886719, 0.017559759, 0.185435995, 0.693819582, 0.098639645,-164.580902100,-189.719802856,-2467.196533203, 0.021770785,
8, 0.077999838, 0.141052082, 0.024783086,-311.189056396,-190.955749512,-2382.404541016, 0.018104097, 0.185445115, 0.693778038, 0.098655634,-164.583618164,-189.720642090,-2467.195800781, 0.022970861,
9, 0.077876329, 0.141300634, 0.024542918,-311.187103271,-190.953659058,-2382.423583984, 0.017743405, 0.185500756, 0.693600655, 0.098800071,-164.592285156,-189.719558716,-2467.220214844, 0.022892836,
10, 0.077830397, 0.141717046, 0.024610287,-311.188934326,-190.949630737,-2382.467041016, 0.017662022, 0.185551420, 0.693843186, 0.098745748,-164.581420898,-189.720306396,-2467.198730469, 0.021641610,
11, 0.077735856, 0.141631946, 0.024387930,-311.186706543,-190.953918457,-2382.433837891, 0.017207138, 0.185503945, 0.693882704, 0.098602273,-164.574478149,-189.722457886,-2467.174804688, 0.023064913,
12, 0.077696696, 0.141474560, 0.024687819,-311.185729980,-190.949111938,-2382.465087891, 0.017726365, 0.185569584, 0.693790376, 0.098869905,-164.591201782,-189.719955444,-2467.212890625, 0.022523860,
13, 0.077617109, 0.141175136, 0.024840578,-311.180145264,-190.951385498,-2382.458007813, 0.016479418, 0.185548440, 0.693722963, 0.098855570,-164.586746216,-189.719512939,-2467.214599609, 0.022054905,
14, 0.077442408, 0.140698954, 0.025179381,-311.186340332,-190.948760986,-2382.492187500, 0.017437372, 0.185518235, 0.693821311, 0.098761395,-164.580947876,-189.720565796,-2467.200927734, 0.021832680,
15, 0.077166423, 0.140485063, 0.024804477,-311.183959961,-190.956863403,-2382.412597656, 0.018121175, 0.185550556, 0.693931997, 0.098983496,-164.600692749,-189.719085693,-2467.233398438, 0.020323655,
16, 0.076968603, 0.140916139, 0.024960302,-311.197479248,-190.954620361,-2382.439208984, 0.017201962, 0.185477003, 0.693895042, 0.098766118,-164.589553833,-189.719741821,-2467.206298828, 0.022177741,
17, 0.076817550, 0.140702322, 0.025107602,-311.197540283,-190.951660156,-2382.459716797, 0.016690915, 0.185435578, 0.693706870, 0.098750792,-164.595520020,-189.718048096,-2467.210693359, 0.022949105,
18, 0.076642878, 0.140760735, 0.024966959,-311.206146240,-190.955764771,-2382.431152344, 0.016519638, 0.185463473, 0.693899632, 0.098809041,-164.598770142,-189.717483521,-2467.222412109, 0.020857545,
19, 0.076517276, 0.140402168, 0.024917545,-311.205657959,-190.955566406,-2382.434814453, 0.016084444, 0.185395405, 0.694097877, 0.098683275,-164.596710205,-189.719635010,-2467.210205078, 0.020023458,
20, 0.076409914, 0.140391976, 0.024904773,-311.209930420,-190.955215454,-2382.447265625, 0.015872555, 0.185347721, 0.693752825, 0.098586991,-164.588195801,-189.719345093,-2467.214843750, 0.022984225,
21, 0.076383717, 0.140718147, 0.024951493,-311.217346191,-190.951248169,-2382.483886719, 0.016507102, 0.185201988, 0.693699479, 0.098321676,-164.580566406,-189.720046997,-2467.192382813, 0.024036989,
22, 0.076406583, 0.140686825, 0.024601169,-311.202484131,-190.954513550,-2382.445312500, 0.015797691, 0.185218737, 0.693731666, 0.098412253,-164.586898804,-189.719177246,-2467.209960938, 0.022943148,
23, 0.076360151, 0.140588358, 0.024407905,-311.197570801,-190.954513550,-2382.441406250, 0.015654977, 0.185246363, 0.693777978, 0.098479651,-164.589309692,-189.718856812,-2467.217285156, 0.022702543,
24, 0.076203547, 0.140542015, 0.024308635,-311.202270508,-190.952285767,-2382.464111328, 0.014614467, 0.185256392, 0.693851054, 0.098428383,-164.585083008,-189.718963623,-2467.206787109, 0.023193480,
25, 0.075898990, 0.140712813, 0.024004996,-311.214141846,-190.955398560,-2382.443603516, 0.015750520, 0.185205221, 0.693795502, 0.098341830,-164.584091187,-189.719970703,-2467.195312500, 0.022631185,
26, 0.075611427, 0.140548274, 0.024132228,-311.226867676,-190.950866699,-2382.496582031, 0.015841914, 0.185239807, 0.693797469, 0.098452240,-164.592956543,-189.719619751,-2467.205566406, 0.022753252,
27, 0.075420544, 0.140613824, 0.023903936,-311.225952148,-190.952056885,-2382.487060547, 0.015789919, 0.185293049, 0.693738282, 0.098558828,-164.595718384,-189.718490601,-2467.218994141, 0.022297392,
28, 0.075331703, 0.140536681, 0.023516495,-311.217498779,-190.956024170,-2382.442382813, 0.016532151, 0.185435817, 0.693808138, 0.098793678,-164.596969604,-189.717407227,-2467.247070313, 0.020223174,
29, 0.075322986, 0.140309945, 0.023332383,-311.214813232,-190.956771851,-2382.442138672, 0.016426520, 0.185390815, 0.693852842, 0.098612323,-164.587265015,-189.719360352,-2467.214599609, 0.022244187,
30, 0.075387269, 0.140424952, 0.023468893,-311.224700928,-190.950393677,-2382.504882813, 0.015946236, 0.185352892, 0.693764865, 0.098502755,-164.579635620,-189.719268799,-2467.198730469, 0.022862632,
31, 0.075522669, 0.140690342, 0.023041019,-311.218170166,-190.952499390,-2382.474609375, 0.015795521, 0.185329050, 0.693871677, 0.098480612,-164.581100464,-189.720733643,-2467.188476563, 0.022765454,
32, 0.075673290, 0.140977994, 0.022775875,-311.215972900,-190.953109741,-2382.467773438, 0.016288379, 0.185468480, 0.693928599, 0.098750636,-164.587890625,-189.720275879,-2467.214599609, 0.021376820,
33, 0.075814165, 0.141105279, 0.022743149,-311.215667725,-190.950347900,-2382.496337891, 0.015191078, 0.185431868, 0.693760455, 0.098618418,-164.580368042,-189.720001221,-2467.190673828, 0.023800895,
34, 0.075879715, 0.141101614, 0.022568690,-311.212493896,-190.951263428,-2382.484375000, 0.015195411, 0.185452908, 0.693820536, 0.098613754,-164.582321167,-189.719772339,-2467.188964844, 0.023719672,
35, 0.075863265, 0.141239792, 0.022393379,-311.211822510,-190.952697754,-2382.463378906, 0.015823310, 0.185515106, 0.693873823, 0.098781966,-164.595321655,-189.719177246,-2467.207519531, 0.022609022,
36, 0.075728603, 0.140913203, 0.022181112,-311.213317871,-190.957412720,-2382.424316406, 0.015828449, 0.185608402, 0.693900108, 0.098843478,-164.588943481,-189.719100952,-2467.211914063, 0.021687169,
37, 0.075685397, 0.140813425, 0.022053331,-311.205627441,-190.958999634,-2382.402099609, 0.016048973, 0.185616493, 0.693767846, 0.098812267,-164.581558228,-189.718612671,-2467.212158203, 0.022322148,
38, 0.075632095, 0.140840694, 0.022498084,-311.216949463,-190.950897217,-2382.475585938, 0.016213570, 0.185546890, 0.693792462, 0.098774910,-164.586715698,-189.718582153,-2467.205078125, 0.022706358,
39, 0.075625390, 0.140696138, 0.022762518,-311.213897705,-190.948211670,-2382.506347656, 0.015786270, 0.185528189, 0.693853915, 0.098785058,-164.588714600,-189.718780518,-2467.207031250, 0.021901185,
40, 0.075555198, 0.140692502, 0.022807535,-311.213378906,-190.949798584,-2382.494384766, 0.015957143, 0.185501978, 0.693947554, 0.098787419,-164.593948364,-189.718795776,-2467.212402344, 0.021521166,
41, 0.075391896, 0.140711099, 0.022572517,-311.215209961,-190.955932617,-2382.444091797, 0.015869915, 0.185481399, 0.693781018, 0.098877430,-164.602539063,-189.717437744,-2467.236816406, 0.022448573,
42, 0.075316414, 0.140860707, 0.022731669,-311.218048096,-190.952499390,-2382.477783203, 0.016554717, 0.185445935, 0.693850875, 0.098712057,-164.587524414,-189.718048096,-2467.212890625, 0.022469318,
43, 0.075215071, 0.140889198, 0.022538122,-311.222961426,-190.953231812,-2382.475830078, 0.016178483, 0.185340762, 0.693840325, 0.098609112,-164.593841553,-189.717971802,-2467.206542969, 0.022703404,
44, 0.075243689, 0.140966237, 0.021954559,-311.207458496,-190.957366943,-2382.423583984, 0.017444964, 0.185335577, 0.693789244, 0.098522633,-164.585250854,-189.718887329,-2467.205078125, 0.023075731,
45, 0.075232714, 0.141053170, 0.021680010,-311.209777832,-190.956466675,-2382.425292969, 0.017381588, 0.185358658, 0.693786323, 0.098607562,-164.593612671,-189.717834473,-2467.225830078, 0.021892162,
46, 0.075247377, 0.141337931, 0.021679882,-311.212585449,-190.952560425,-2382.466796875, 0.016122026, 0.185334563, 0.693799615, 0.098605581,-164.596923828,-189.717849731,-2467.229248047, 0.021705216,
47, 0.075253129, 0.141799748, 0.021296687,-311.212646484,-190.957916260,-2382.412109375, 0.016261356, 0.185243353, 0.693842351, 0.098459914,-164.598388672,-189.718917847,-2467.208251953, 0.023128571,
48, 0.075268127, 0.141730279, 0.021093342,-311.200439453,-190.961410522,-2382.366699219, 0.016583588, 0.185321152, 0.693731546, 0.098583616,-164.597000122,-189.717971802,-2467.226562500, 0.022208085,
49, 0.075318381, 0.141660899, 0.021376779,-311.187744141,-190.958984375,-2382.384765625, 0.016609959, 0.185390532, 0.693814814, 0.098752998,-164.605575562,-189.716781616,-2467.244873047, 0.021128161,
50, 0.075170837, 0.141696677, 0.021715615,-311.197357178,-190.960815430,-2382.388671875, 0.017212942, 0.185342237, 0.693831563, 0.098615892,-164.597488403,-189.717239380,-2467.224121094, 0.021853926,
51, 0.074932426, 0.141071036, 0.022456946,-311.203735352,-190.953155518,-2382.477294922, 0.016419016, 0.185367644, 0.693926156, 0.098747313,-164.602981567,-189.716690063,-2467.239746094, 0.020382067,
52, 0.074633867, 0.141184226, 0.022364199,-311.217590332,-190.956817627,-2382.458984375, 0.017481720, 0.185288116, 0.693998098, 0.098572679,-164.594879150,-189.718704224,-2467.214111328, 0.021229202,
53, 0.074437886, 0.141166031, 0.022096161,-311.220672607,-190.958602905,-2382.439697266, 0.017368102, 0.185294136, 0.693911552, 0.098537952,-164.589675903,-189.719284058,-2467.205078125, 0.022583883,
54, 0.074424461, 0.141518414, 0.021708503,-311.227416992,-190.959136963,-2382.435058594, 0.017290402, 0.185407743, 0.693785429, 0.098696902,-164.593368530,-189.718536377,-2467.223632813, 0.022459622,
55, 0.074592322, 0.141626537, 0.021115115,-311.220642090,-190.960998535,-2382.407470703, 0.017394876, 0.185411006, 0.693769336, 0.098668978,-164.599899292,-189.718872070,-2467.218017578, 0.022603953,
56, 0.074952886, 0.142000452, 0.020737994,-311.204376221,-190.959274292,-2382.400390625, 0.016437979, 0.185446069, 0.693839550, 0.098658599,-164.596420288,-189.719497681,-2467.208496094, 0.022767523,
57, 0.075291745, 0.142293721, 0.020590574,-311.197601318,-190.957672119,-2382.418701172, 0.016934184, 0.185494527, 0.693804383, 0.098798476,-164.603179932,-189.719146729,-2467.221679688, 0.023322612,
58, 0.075465575, 0.142189652, 0.020395508,-311.178710938,-190.957336426,-2382.404052734, 0.017622111, 0.185617596, 0.693873048, 0.099000528,-164.604110718,-189.718017578,-2467.238769531, 0.022238601,
59, 0.075286776, 0.141984403, 0.020483553,-311.187133789,-190.956649780,-2382.422851563, 0.016481033, 0.185645968, 0.693817198, 0.099081911,-164.606597900,-189.717834473,-2467.246337891, 0.021636855,
60, 0.074878380, 0.141906962, 0.020717438,-311.204864502,-190.954605103,-2382.458496094, 0.016676852, 0.185663655, 0.693891168, 0.099112332,-164.608139038,-189.717575073,-2467.247802734, 0.021194046,
61, 0.074366346, 0.141913593, 0.020501612,-311.216979980,-190.959701538,-2382.422119141, 0.017076634, 0.185603201, 0.693931282, 0.099016227,-164.605758667,-189.717407227,-2467.234863281, 0.021353902,
62, 0.074043870, 0.142100468, 0.020405499,-311.220977783,-190.960037231,-2382.418945313, 0.018018790, 0.185512409, 0.693887413, 0.098866418,-164.599792480,-189.718719482,-2467.216796875, 0.022830581,
63, 0.073904887, 0.142159954, 0.020374361,-311.220916748,-190.958358765,-2382.436523438, 0.017982900, 0.185419396, 0.693909705, 0.098729879,-164.597869873,-189.718734741,-2467.196777344, 0.022906478,
64, 0.073892966, 0.141909212, 0.020152194,-311.217895508,-190.960662842,-2382.416015625, 0.017193673, 0.185453057, 0.693872571, 0.098794453,-164.602966309,-189.718872070,-2467.211181641, 0.022245698,
65, 0.074062154, 0.141881734, 0.020118978,-311.213287354,-190.958938599,-2382.423828125, 0.017814828, 0.185481235, 0.693852007, 0.098703109,-164.594711304,-189.719268799,-2467.204589844, 0.022850933,
66, 0.074257702, 0.141722560, 0.019993339,-311.201080322,-190.957870483,-2382.431152344, 0.017136866, 0.185603127, 0.693967581, 0.099009059,-164.610763550,-189.716781616,-2467.242675781, 0.019816842,
67, 0.074380592, 0.141875193, 0.019534644,-311.186798096,-190.962493896,-2382.379882813, 0.017851772, 0.185511693, 0.693819880, 0.099036247,-164.624237061,-189.716033936,-2467.255126953, 0.020297144,
68, 0.074346162, 0.141874358, 0.019336054,-311.180572510,-190.962341309,-2382.365722656, 0.017484378, 0.185402498, 0.693820834, 0.098820128,-164.614959717,-189.716888428,-2467.237304688, 0.022030640,
69, 0.074152566, 0.141780734, 0.019477589,-311.183685303,-190.961486816,-2382.381591797, 0.016834434, 0.185280263, 0.693909824, 0.098526940,-164.600372314,-189.719299316,-2467.203613281, 0.023087526,
70, 0.073819250, 0.141673878, 0.019929508,-311.204010010,-190.959152222,-2382.437500000, 0.017816314, 0.185323700, 0.693920970, 0.098611943,-164.603179932,-189.718566895,-2467.223144531, 0.021638688,
71, 0.073526345, 0.141374603, 0.020001529,-311.207336426,-190.962631226,-2382.419677734, 0.017959323, 0.185429603, 0.693909585, 0.098845780,-164.609909058,-189.716567993,-2467.258789063, 0.019938409,
72, 0.073343083, 0.141418576, 0.020348428,-311.221130371,-190.959793091,-2382.453857422, 0.016790019, 0.185340017, 0.694101453, 0.098574683,-164.592346191,-189.719924927,-2467.214111328, 0.020677770,
73, 0.073329858, 0.141245529, 0.020377208,-311.212921143,-190.959884644,-2382.433593750, 0.016897591, 0.185204297, 0.693992019, 0.098377049,-164.592437744,-189.721221924,-2467.191406250, 0.022946117,
74, 0.073452502, 0.141127437, 0.020489275,-311.196105957,-190.960510254,-2382.415039063, 0.017508389, 0.185319826, 0.693692684, 0.098704755,-164.609588623,-189.718017578,-2467.238769531, 0.023213625,
75, 0.073539294, 0.141071767, 0.020903401,-311.201141357,-190.958892822,-2382.449707031, 0.017215488, 0.185377061, 0.693700254, 0.098792672,-164.614837646,-189.718185425,-2467.246337891, 0.022569425,
76, 0.073550045, 0.141001657, 0.021077758,-311.200225830,-190.958770752,-2382.453125000, 0.017450703, 0.185397491, 0.693698883, 0.098662995,-164.598663330,-189.718917847,-2467.228271484, 0.022488184,
77, 0.073451087, 0.140765741, 0.021189297,-311.198547363,-190.956649780,-2382.486083984, 0.017251177, 0.185438693, 0.693866014, 0.098845087,-164.609573364,-189.718032837,-2467.247070313, 0.022138517,
78, 0.073160335, 0.140934005, 0.020816119,-311.212554932,-190.956787109,-2382.490966797, 0.017273299, 0.185355484, 0.693878829, 0.098637328,-164.598587036,-189.719604492,-2467.216552734, 0.021700805,
79, 0.072850667, 0.141063407, 0.020007866,-311.202209473,-190.961517334,-2382.418457031, 0.016902613, 0.185438588, 0.693800211, 0.098802678,-164.601577759,-189.718902588,-2467.235595703, 0.021588726,
80, 0.072499409, 0.140910327, 0.019607918,-311.209686279,-190.963485718,-2382.411621094, 0.015772393, 0.185494110, 0.693873227, 0.098742053,-164.588729858,-189.719711304,-2467.217285156, 0.022187371,
81, 0.072256625, 0.140894711, 0.019445462,-311.221557617,-190.963424683,-2382.419189453, 0.016068595, 0.185448080, 0.694061041, 0.098604962,-164.585906982,-189.721008301,-2467.183105469, 0.021748967,
82, 0.072217651, 0.140689135, 0.019439321,-311.219573975,-190.963562012,-2382.429931641, 0.015741436, 0.185497984, 0.694102585, 0.098816946,-164.600051880,-189.720932007,-2467.206787109, 0.020092746,
83, 0.072353572, 0.140564218, 0.019406095,-311.207977295,-190.964630127,-2382.423583984, 0.016847763, 0.185557768, 0.694003224, 0.098922014,-164.601898193,-189.720367432,-2467.225585938, 0.020960527,
84, 0.072471723, 0.140468985, 0.019284623,-311.196929932,-190.964752197,-2382.414062500, 0.016920071, 0.185509250, 0.693874836, 0.098882258,-164.606506348,-189.721191406,-2467.220214844, 0.021977747,
85, 0.072501257, 0.140906945, 0.019408796,-311.200744629,-190.959655762,-2382.443115234, 0.015341459, 0.185702533, 0.694058239, 0.099087819,-164.601821899,-189.719482422,-2467.242187500, 0.018505344,
86, 0.072357491, 0.141159534, 0.019451657,-311.201995850,-190.960342407,-2382.436523438, 0.015462183, 0.185580090, 0.693945885, 0.098869823,-164.598876953,-189.719985962,-2467.219482422, 0.020326763,
87, 0.072025761, 0.140930623, 0.019595848,-311.210693359,-190.962661743,-2382.430175781, 0.015129241, 0.185575143, 0.693963170, 0.098948732,-164.605484009,-189.718795776,-2467.236572266, 0.019820254,
88, 0.071640082, 0.140444100, 0.019598056,-311.215789795,-190.968475342,-2382.400390625, 0.016088640, 0.185581744, 0.693931520, 0.099026173,-164.609588623,-189.717529297,-2467.248291016, 0.019503361,
89, 0.071381725, 0.140105322, 0.019804593,-311.215454102,-190.965484619,-2382.437255859, 0.016165081, 0.185504600, 0.693782270, 0.098977588,-164.612274170,-189.718582153,-2467.246582031, 0.021628488,
90, 0.071215324, 0.140076622, 0.019520858,-311.215301514,-190.965530396,-2382.422851563, 0.015514407, 0.185516447, 0.693892121, 0.098876663,-164.598876953,-189.718811035,-2467.230224609, 0.021670351,
91, 0.071184486, 0.140239432, 0.019451981,-311.215240479,-190.959808350,-2382.469482422, 0.016016833, 0.185596719, 0.694072306, 0.099008679,-164.600433350,-189.717529297,-2467.249267578, 0.018794846,
92, 0.071188986, 0.140330881, 0.018766895,-311.200225830,-190.966857910,-2382.393066406, 0.015234423, 0.185428247, 0.694056809, 0.098684855,-164.589599609,-189.719512939,-2467.210205078, 0.020860495,
93, 0.071234219, 0.140754327, 0.018797632,-311.201965332,-190.964889526,-2382.412841797, 0.015756529, 0.185336098, 0.693849862, 0.098573089,-164.590255737,-189.719619751,-2467.209228516, 0.022465210,
94, 0.071188383, 0.140735358, 0.018923327,-311.207458496,-190.964675903,-2382.427734375, 0.015636943, 0.185350329, 0.693857670, 0.098769926,-164.609329224,-189.719161987,-2467.245605469, 0.020499600,
95, 0.071116529, 0.140553713, 0.018851014,-311.205169678,-190.969009399,-2382.394042969, 0.016025679, 0.185359225, 0.693883300, 0.098757744,-164.608947754,-189.719253540,-2467.250976563, 0.020748276,
96, 0.071099132, 0.140747622, 0.019091174,-311.202972412,-190.967498779,-2382.411132813, 0.015933530, 0.185393155, 0.693942070, 0.098780550,-164.609085083,-189.718643188,-2467.254882813, 0.020089891,
97, 0.071020074, 0.140763655, 0.019292844,-311.207580566,-190.966430664,-2382.419921875, 0.015742768, 0.185309738, 0.693966508, 0.098568343,-164.599288940,-189.720199585,-2467.224609375, 0.021123953,
98, 0.070915744, 0.140701979, 0.019644434,-311.218994141,-190.965194702,-2382.440673828, 0.016475698, 0.185354114, 0.693903923, 0.098660514,-164.598007202,-189.719131470,-2467.230224609, 0.021163611,
